subjet,eda,bvp,temp,x,y,z,emotion
1,0,-0.03,31.63,-13,-18,62,0
1,0.04,5.06,31.63,-15,-18,62,0
1,0.08,17.91,31.63,-14,-17,62,0
1,0.08,79.34,31.63,-16,-17,60,0
1,0.08,228.25,31.63,3,-12,63,0
1,0.08,-486.47,31.63,9,-3,72,0
1,0.08,-5.02,31.63,13,-2,69,0
1,0.09,160.09,31.63,4,-8,66,0
1,0.09,63.4,31.61,1,-9,65,0
1,0.09,35.3,31.61,3,-9,65,0
1,0.08,-22.52,31.61,1,-10,64,0
1,0.09,10.78,31.61,0,-10,64,0
1,0.08,79.85,31.59,-1,-10,64,0
1,0.09,157.88,31.59,-1,-10,64,0
1,0.09,61.42,31.59,0,-10,64,0
1,0.08,3.83,31.59,-1,-10,65,0
1,0.09,-3.45,31.57,4,-11,63,0
1,0.08,-7.97,31.57,0,-11,64,0
1,0.09,-12.42,31.57,-1,-11,64,0
1,0.09,-27.72,31.57,-1,-11,64,0
1,0.09,-116.2,31.57,-2,-11,64,0
1,0.09,-391.69,31.57,-3,-11,63,0
1,0.08,-67.77,31.57,-2,-11,64,0
1,0.08,32.32,31.57,-1,-13,63,0
1,0.08,55.27,31.55,-2,-11,64,0
1,0.09,16.29,31.55,-2,-11,64,0
1,0.09,-10.43,31.55,-1,-11,64,0
1,0.09,19.7,31.55,-2,-11,64,0
1,0.08,-35.76,31.51,-3,-11,64,0
1,0.09,60.46,31.51,-3,-12,63,0
1,0.08,38.33,31.51,-3,-12,64,0
1,0.08,4.61,31.51,-3,-12,64,0
1,0.08,22.61,31.49,-3,-12,64,0
1,0.08,-10.86,31.49,-3,-12,63,0
1,0.08,26.54,31.49,-3,-12,64,0
1,0.08,20.89,31.49,-2,-12,64,0
1,0.08,-18.3,31.51,-3,-12,64,0
1,0.09,14.75,31.51,-2,-12,63,0
1,0.08,-15.46,31.51,-2,-11,64,0
1,0.08,-21.16,31.51,-3,-12,64,0
1,0.08,22.43,31.49,-3,-12,63,0
1,0.08,-22.65,31.49,-3,-12,64,0
1,0.09,26.16,31.49,-3,-12,64,0
1,0.08,32.36,31.49,-2,-12,64,0
1,0.08,-48.79,31.47,-2,-12,64,0
1,0.08,36.69,31.47,-3,-12,63,0
1,0.08,-9.83,31.47,-3,-12,64,0
1,0.09,9.23,31.47,-3,-12,64,0
1,0.08,10.65,31.47,-3,-12,65,0
1,0.08,-48.85,31.47,-2,-12,65,0
1,0.08,39.32,31.47,-3,-12,64,0
1,0.08,16.22,31.47,-3,-12,64,0
1,0.08,-4.09,31.45,-4,-12,64,0
1,0.08,-42.65,31.45,-3,-12,64,0
1,0.08,-1.65,31.45,-2,-12,63,0
1,0.08,32.35,31.45,-2,-12,64,0
1,0.08,20.3,31.43,2,-12,64,0
1,0.08,-8.6,31.43,5,-13,64,0
1,0.08,48.98,31.43,5,-13,64,0
1,0.08,31.11,31.43,5,-14,63,0
1,0.08,-13.8,31.41,2,-13,63,0
1,0.08,105.04,31.41,3,-13,63,0
1,0.08,-22.06,31.41,2,-13,63,0
1,0.08,-47.62,31.41,1,-13,63,0
1,0.08,-49.14,31.39,0,-13,63,0
1,0.08,-11.81,31.39,-1,-13,63,0
1,0.08,23.8,31.39,0,-12,64,0
1,0.08,-26.33,31.39,-1,-13,64,0
1,0.09,-63.92,31.39,0,-13,64,0
1,0.09,50.41,31.39,0,-13,64,0
1,0.08,21.63,31.39,-1,-13,63,0
1,0.08,-4.56,31.39,0,-13,64,0
1,0.09,23.34,31.35,0,-13,63,0
1,0.09,-13.63,31.35,0,-13,63,0
1,0.08,24.6,31.35,0,-13,64,0
1,0.08,7.1,31.35,0,-12,63,0
1,0.09,-48.15,31.33,-1,-12,64,0
1,0.08,36.18,31.33,-1,-12,64,0
1,0.08,-7.49,31.33,-1,-12,63,0
1,0.08,-27.26,31.33,-1,-12,63,0
1,0.08,21.53,31.35,-1,-12,64,0
1,0.09,14.7,31.35,-1,-12,63,0
1,0.09,8.7,31.35,-1,-12,64,0
1,0.08,0.59,31.35,0,-12,64,0
1,0.09,-19.43,31.33,0,-13,64,0
1,0.08,35.01,31.33,0,-12,64,0
1,0.08,16.32,31.33,0,-12,64,0
1,0.08,-50.18,31.33,0,-12,64,0
1,0.08,29.95,31.33,0,-13,64,0
1,0.09,-9.84,31.33,0,-13,63,0
1,0.09,-7.04,31.33,-1,-13,63,0
1,0.09,21.86,31.33,0,-12,63,0
1,0.09,-28.68,31.31,-1,-13,63,0
1,0.09,21.67,31.31,0,-12,64,0
1,0.09,5.58,31.31,0,-13,64,0
1,0.09,-37.88,31.31,0,-12,64,0
1,0.09,53.72,31.29,0,-12,64,0
1,0.09,19.58,31.29,4,-11,65,0
1,0.09,-51.61,31.29,6,-12,65,0
1,0.09,17.82,31.29,-1,-15,67,0
1,0.08,-6.81,31.31,-6,-15,63,0
1,0.09,27.99,31.31,-8,-17,66,0
1,0.09,-133.47,31.31,-11,-16,60,0
1,0.09,-264.8,31.31,1,-17,58,0
1,0.09,167.77,31.27,-4,-19,64,0
1,0.09,71.07,31.27,-4,-19,62,0
1,0.09,-124.77,31.27,-4,-19,64,0
1,0.09,-74.28,31.27,-5,-19,63,0
1,0.09,261.12,31.27,-5,-21,62,0
1,0.09,113.23,31.27,-6,-20,62,0
1,0.09,18.93,31.27,-5,-21,60,0
1,0.09,-1.77,31.27,-6,-21,62,0
1,0.09,-12.17,31.23,-5,-21,62,0
1,0.09,-4.88,31.23,-5,-22,61,0
1,0.09,-14.09,31.23,-6,-22,61,0
1,0.09,0.53,31.23,-9,-20,62,0
1,0.09,2.03,31.25,-11,-21,61,0
1,0.09,-12.75,31.25,-11,-21,60,0
1,0,-0.03,27.11,22,43,41,1
1,0.2,5.06,27.11,23,43,40,1
1,0.3,17.91,27.11,22,43,40,1
1,0.3,79.34,27.11,22,43,41,1
1,0.3,228.25,27.11,23,44,41,1
1,0.3,-486.5,27.11,22,43,41,1
1,0.3,-5.9,27.11,22,43,41,1
1,0.3,156.15,27.11,22,43,42,1
1,0.3,46.78,27.11,21,43,40,1
1,0.3,4.05,27.11,22,43,42,1
1,0.3,0.18,27.11,20,42,42,1
1,0.3,0.9,27.11,22,43,41,1
1,0.3,4,27.09,22,43,41,1
1,0.3,15.41,27.09,22,43,41,1
1,0.3,10.25,27.09,22,43,41,1
1,0.3,-14.03,27.09,21,43,41,1
1,0.3,13.49,27.09,22,43,41,1
1,0.3,50.54,27.09,22,43,42,1
1,0.3,-13.1,27.09,22,43,41,1
1,0.3,-100.26,27.09,22,43,41,1
1,0.3,19.23,27.09,21,43,41,1
1,0.3,8.59,27.09,22,43,42,1
1,0.3,26.01,27.09,21,43,42,1
1,0.3,16.23,27.09,22,43,42,1
1,0.3,-14.43,27.07,22,43,41,1
1,0.3,11.58,27.07,24,44,39,1
1,0.3,4.49,27.07,23,45,39,1
1,0.3,-13.62,27.07,24,44,41,1
1,0.3,9.02,27.07,21,43,40,1
1,0.3,5.57,27.07,22,43,40,1
1,0.3,-12.34,27.07,22,43,40,1
1,0.3,16.31,27.07,20,43,40,1
1,0.3,9.4,27.05,23,43,40,1
1,0.3,-30.58,27.05,24,43,40,1
1,0.3,9.02,27.05,23,44,40,1
1,0.3,18.39,27.05,23,43,41,1
1,0.3,-21.19,27.05,22,43,39,1
1,0.3,-7.99,27.05,22,43,40,1
1,0.3,3.07,27.05,23,44,39,1
1,0.31,13,27.05,24,44,40,1
1,0.3,15.48,27.03,22,43,40,1
1,0.3,0.56,27.03,21,43,41,1
1,0.3,-16.66,27.03,22,44,39,1
1,0.3,3.63,27.03,22,43,41,1
1,0.3,-8.21,27.03,22,43,40,1
1,0.3,-16.19,27.03,22,43,40,1
1,0.3,11.16,27.03,23,44,39,1
1,0.3,-4,27.03,21,43,41,1
1,0.3,-11.19,27.05,23,44,40,1
1,0.3,22.66,27.05,23,44,40,1
1,0.3,8.69,27.05,22,44,40,1
1,0.3,-9.78,27.05,22,43,39,1
1,0.3,7.22,27.03,22,44,40,1
1,0.3,0.06,27.03,23,43,38,1
1,0.3,-13.27,27.03,23,44,37,1
1,0.3,-9.29,27.03,23,45,40,1
1,0.3,-20.37,27.05,22,46,39,1
1,0.3,-13.18,27.05,23,44,39,1
1,0.3,28.7,27.05,31,46,33,1
1,0.3,-6.15,27.05,28,44,38,1
1,0.3,-33.87,27.03,25,43,39,1
1,0.3,-25.85,27.03,24,45,39,1
1,0.3,30.62,27.03,22,46,33,1
1,0.3,54.92,27.03,21,48,32,1
1,0.3,143.79,27.03,29,47,32,1
1,0.31,-45.32,27.03,33,47,32,1
1,0.31,-137.26,27.03,33,45,30,1
1,0.32,60.85,27.03,35,44,30,1
1,0.32,114.7,27.01,37,45,28,1
1,0.32,178.79,27.01,37,45,29,1
1,0.32,-112.13,27.01,35,44,28,1
1,0.31,4.42,27.01,31,43,27,1
1,0.32,-74.22,27.03,35,44,32,1
1,0.32,-35.1,27.03,32,47,27,1
1,0.32,-41.23,27.03,36,47,29,1
1,0.32,20.6,27.03,32,46,33,1
1,0.31,78.94,27.03,31,46,32,1
1,0.32,-45,27.03,30,45,34,1
1,0.31,-10.08,27.03,33,45,31,1
1,0.31,16.23,27.03,31,45,33,1
1,0.32,-83.32,27.05,33,44,35,1
1,0.32,-161.96,27.05,31,45,29,1
1,0.32,-77.68,27.05,38,44,30,1
1,0.31,-18.1,27.05,34,44,30,1
1,0.32,-43.48,27.05,34,45,31,1
1,0.32,-84.27,27.05,34,44,31,1
1,0.32,113.31,27.05,34,44,30,1
1,0.31,306.37,27.05,32,44,31,1
1,0.32,101.16,27.05,34,44,33,1
1,0.31,190.07,27.05,31,44,29,1
1,0.32,53.17,27.05,34,45,32,1
1,0.32,18.08,27.05,35,45,29,1
1,0.32,-144.02,27.07,35,45,29,1
1,0.32,-53.84,27.07,36,45,30,1
1,0.32,-152.55,27.07,35,45,30,1
1,0.32,48.36,27.07,35,45,29,1
1,0.32,-85.3,27.09,35,45,29,1
1,0.32,100.16,27.09,34,45,29,1
1,0.32,81.34,27.09,36,44,30,1
1,0.32,27.62,27.09,35,45,29,1
1,0.32,-93.54,27.07,36,45,29,1
1,0.32,27.29,27.07,34,45,29,1
1,0.32,17.53,27.07,35,44,29,1
1,0.32,-0.59,27.07,35,45,30,1
1,0.32,23.23,27.09,36,44,30,1
1,0.32,44.97,27.09,35,45,29,1
1,0.32,29.77,27.09,35,45,29,1
1,0.32,-68.8,27.09,35,45,30,1
1,0.32,-9.34,27.09,34,45,30,1
1,0.32,-12.27,27.09,35,45,30,1
1,0.32,-22.39,27.09,34,45,29,1
1,0.32,-2.85,27.09,34,45,29,1
1,0.32,11.48,27.11,35,44,30,1
1,0.32,3.69,27.11,35,44,29,1
1,0.32,19.02,27.11,35,45,29,1
1,0.32,-23.2,27.11,35,45,29,1
1,0.32,7.05,27.15,35,45,29,1
1,0.32,46.12,27.15,35,45,30,1
1,0,-0.03,31.03,72,11,28,0
1,0.09,5.06,31.03,66,-51,54,0
1,0.14,17.91,31.03,30,-18,44,0
1,0.14,79.34,31.03,-24,-77,12,0
1,0.15,228.25,31.03,9,-22,54,0
1,0.19,-486.42,31.03,2,-7,64,0
1,0.19,-6.01,31.03,6,7,72,0
1,0.19,154.76,31.03,39,2,69,0
1,0.18,32.66,31.13,79,24,36,0
1,0.17,-16.04,31.13,45,8,48,0
1,0.17,-29.38,31.13,23,8,55,0
1,0.16,-9.28,31.13,32,9,59,0
1,0.16,-5.46,31.11,26,8,60,0
1,0.16,2.31,31.11,25,9,59,0
1,0.15,8.32,31.11,31,12,55,0
1,0.15,18.72,31.11,21,7,60,0
1,0.14,15.08,31.05,19,8,61,0
1,0.15,-63.81,31.05,19,8,62,0
1,0.15,-60.33,31.05,19,9,59,0
1,0.14,-1.21,31.05,24,12,55,0
1,0.14,-74.34,31.11,27,14,52,0
1,0.14,209.16,31.11,29,12,57,0
1,0.14,11.51,31.11,50,7,57,0
1,0.14,-41.12,31.11,73,11,62,0
1,0.14,30.9,31.17,27,12,62,0
1,0.15,65.97,31.17,9,11,64,0
1,0.14,-105.74,31.17,13,6,59,0
1,0.14,40.38,31.17,4,8,66,0
1,0.14,-155.78,31.23,5,10,63,0
1,0.14,108.79,31.23,7,10,62,0
1,0.14,185.57,31.23,6,11,62,0
1,0.13,74.97,31.23,13,11,62,0
1,0.13,-38.17,31.05,8,10,65,0
1,0.13,-257.05,31.05,6,9,63,0
1,0.13,168.09,31.05,5,9,64,0
1,0.13,5.9,31.05,6,9,63,0
1,0.13,-102.95,30.95,6,8,64,0
1,0.13,-34.4,30.95,7,6,66,0
1,0.13,20.12,30.95,7,7,64,0
1,0.12,267.68,30.95,6,7,64,0
1,0.13,-40.2,31.25,6,7,64,0
1,0.13,-10.99,31.25,5,5,63,0
1,0.13,-89.37,31.25,5,6,64,0
1,0.13,-123.25,31.25,6,5,64,0
1,0.13,47.51,31.37,5,6,64,0
1,0.13,20.87,31.37,7,7,63,0
1,0.13,101.39,31.37,8,7,63,0
1,0.13,24.31,31.37,7,6,63,0
1,0.13,23.38,31.43,10,7,64,0
1,0.13,-28.01,31.43,6,7,64,0
1,0.13,161.04,31.43,5,6,64,0
1,0.13,22.71,31.43,5,7,63,0
1,0.13,-355.41,31.49,4,6,64,0
1,0.12,-180.21,31.49,2,7,64,0
1,0.12,212.71,31.49,1,8,63,0
1,0.12,117.33,31.49,0,8,64,0
1,0.12,107.04,31.51,0,6,64,0
1,0.12,-93.6,31.51,3,10,64,0
1,0.12,42.76,31.51,2,10,63,0
1,0.12,133.37,31.51,4,9,64,0
1,0.12,101.63,31.57,8,11,64,0
1,0.12,35.55,31.57,2,11,60,0
1,0.12,-160.06,31.57,6,11,63,0
1,0.12,-161.57,31.57,4,11,63,0
1,0.12,24.81,31.59,5,11,63,0
1,0.12,68.26,31.59,7,11,63,0
1,0.12,-115.76,31.59,6,11,62,0
1,0.12,-20.74,31.59,9,12,60,0
1,0.12,49.05,31.55,11,10,66,0
1,0.12,38.91,31.55,9,11,62,0
1,0.13,13.7,31.55,9,11,62,0
1,0.12,17.15,31.55,8,11,62,0
1,0.12,-41.92,31.53,7,11,62,0
1,0.12,10.74,31.53,8,11,63,0
1,0.12,4.74,31.53,10,10,62,0
1,0.12,-2.91,31.53,9,11,62,0
1,0.12,27.82,31.51,9,11,63,0
1,0.12,-6.97,31.51,8,12,63,0
1,0.12,-3.11,31.51,9,11,63,0
1,0.12,-66.68,31.51,9,12,63,0
1,0.12,23.12,31.49,10,13,62,0
1,0.12,-52.58,31.49,10,12,62,0
1,0.12,-22.71,31.49,17,14,64,0
1,0.12,-78.39,31.49,4,14,57,0
1,0.12,12.01,31.49,53,20,23,0
1,0.12,65.72,31.49,49,24,-30,0
1,0.12,-28.04,31.49,40,18,-41,0
1,0.12,-89.54,31.49,36,16,-59,0
1,0.12,167.35,31.47,28,14,-53,0
1,0.11,294.2,31.47,25,14,-55,0
1,0.1,-162.05,31.47,27,13,-55,0
1,0.1,-61.81,31.47,28,13,-58,0
1,0.1,90.75,31.57,30,13,-66,0
1,0.1,-84.86,31.57,12,17,-58,0
1,0.1,15.81,31.57,13,18,-64,0
1,0.1,36.63,31.57,5,19,-57,0
1,0.09,-19.34,31.59,5,18,-56,0
1,0.08,34.53,31.59,10,18,-61,0
1,0.08,-89.19,31.59,13,18,-58,0
1,0.09,193.33,31.59,15,19,-60,0
1,0.11,-109.43,31.63,13,16,-57,0
1,0.11,-101.5,31.63,13,20,-64,0
1,0.12,27.15,31.63,11,17,-57,0
1,0.13,70.94,31.63,10,18,-59,0
1,0.13,112.54,31.65,9,18,-59,0
1,0.13,-81.88,31.65,5,17,-61,0
1,0.14,-186.91,31.65,5,17,-63,0
1,0.14,-46.08,31.65,7,17,-60,0
1,0.14,12.48,31.69,6,17,-62,0
1,0.15,209.45,31.69,7,16,-61,0
1,0.15,88.73,31.69,8,18,-56,0
1,0.16,-13.48,31.69,9,18,-60,0
1,0.15,-20.82,31.71,8,18,-56,0
1,0.16,-18.95,31.71,11,17,-58,0
1,0.17,15.58,31.71,9,21,-63,0
1,0.17,208.27,31.71,10,20,-61,0
1,0.16,-239.54,31.71,10,21,-60,0
1,0.15,39.32,31.71,14,21,-63,0
1,0,-0.03,26.97,33,23,50,0
1,0.21,5.06,26.97,33,24,50,0
1,0.29,17.91,26.97,32,25,50,0
1,0.28,79.34,26.97,32,25,49,0
1,0.29,228.25,26.97,32,25,50,0
1,0.28,-486.5,26.97,30,25,50,0
1,0.28,-5.9,26.97,30,24,49,0
1,0.28,156.15,26.97,34,29,45,0
1,0.29,46.78,26.97,40,24,48,0
1,0.29,4.05,26.97,30,26,45,0
1,0.28,0.13,26.97,35,25,48,0
1,0.29,0.72,26.97,32,26,50,0
1,0.29,3.13,26.99,30,29,51,0
1,0.29,12.74,26.99,30,28,49,0
1,0.29,17.69,26.99,25,29,50,0
1,0.29,-13.54,26.99,25,27,50,0
1,0.29,11.85,26.99,29,27,48,0
1,0.29,60.13,26.99,41,30,40,0
1,0.29,98.94,26.99,42,37,27,0
1,0.28,-205.73,26.99,50,38,17,0
1,0.28,-94.84,26.97,46,38,15,0
1,0.28,-70.41,26.97,51,34,21,0
1,0.28,44.61,26.97,48,34,23,0
1,0.27,138.7,26.97,54,33,32,0
1,0.28,118.16,27.01,45,32,31,0
1,0.27,-1.8,27.01,48,34,29,0
1,0.27,-14.09,27.01,50,33,34,0
1,0.27,-5.64,27.01,51,34,27,0
1,0.27,-17.04,26.97,46,34,22,0
1,0.27,-33.42,26.97,50,34,23,0
1,0.27,-11.09,26.97,51,34,23,0
1,0.27,0.34,26.97,51,34,23,0
1,0.27,15.1,26.99,53,34,24,0
1,0.27,6.07,26.99,50,34,23,0
1,0.27,6.32,26.99,54,33,23,0
1,0.27,7.46,26.99,50,34,19,0
1,0.28,-6.84,26.97,51,34,19,0
1,0.27,-6.4,26.97,50,34,19,0
1,0.27,-10.94,26.97,52,34,19,0
1,0.27,9.12,26.97,51,34,20,0
1,0.27,9.23,26.97,47,34,19,0
1,0.27,-3.2,26.97,49,34,20,0
1,0.28,-12.92,26.97,53,33,23,0
1,0.27,22.14,26.97,51,33,22,0
1,0.28,36.07,26.97,51,33,22,0
1,0.27,-11.05,26.97,51,34,20,0
1,0.28,-0.15,26.97,50,34,22,0
1,0.27,1.84,26.97,55,33,23,0
1,0.28,-4.98,26.97,52,33,22,0
1,0.27,0.7,26.97,51,33,23,0
1,0.27,-9.95,26.97,51,33,21,0
1,0.27,6.53,26.97,42,32,23,0
1,0.27,-1.48,26.95,52,32,26,0
1,0.27,-4.66,26.95,53,32,27,0
1,0.27,7.66,26.95,47,32,23,0
1,0.27,2.54,26.95,51,32,24,0
1,0.27,3.09,26.99,51,31,21,0
1,0.27,-12.63,26.99,49,32,23,0
1,0.27,-41.04,26.99,51,32,24,0
1,0.27,15.37,26.99,51,32,24,0
1,0.27,30.19,26.99,51,32,24,0
1,0.27,12.5,26.99,51,32,24,0
1,0.27,-1.72,26.99,50,32,24,0
1,0.27,-15.73,26.99,51,32,25,0
1,0.27,10.76,26.99,51,32,25,0
1,0.28,-11.98,26.99,50,31,25,0
1,0.27,5.06,26.99,53,32,22,0
1,0.28,-6.13,26.99,51,32,23,0
1,0.27,-1.67,27.01,51,32,24,0
1,0.27,-0.97,27.01,51,32,24,0
1,0.28,1.93,27.01,49,32,23,0
1,0.27,-2.03,27.01,49,31,25,0
1,0.27,-4.64,27.03,50,32,24,0
1,0.27,-7.09,27.03,49,32,22,0
1,0.27,9.27,27.03,51,32,23,0
1,0.27,-10.67,27.03,51,32,23,0
1,0.27,2.79,26.99,52,32,22,0
1,0.27,6.74,26.99,53,32,22,0
1,0.27,-1.69,26.99,52,32,21,0
1,0.27,0.24,26.99,51,32,22,0
1,0.28,-1.57,27.01,52,32,21,0
1,0.27,6.95,27.01,52,32,22,0
1,0.28,3.25,27.01,53,32,21,0
1,0.27,4.39,27.01,52,32,23,0
1,0.28,-2.94,27.03,52,32,22,0
1,0.27,-4.25,27.03,53,32,20,0
1,0.27,-4.66,27.03,51,32,20,0
1,0.27,-4.45,27.03,52,32,22,0
1,0.27,8.48,27.03,52,32,22,0
1,0.28,12.37,27.03,51,32,22,0
1,0.27,5.39,27.03,51,32,23,0
1,0.28,1.28,27.03,51,32,22,0
1,0.27,-5.59,27.03,52,32,22,0
1,0.27,-9.49,27.03,51,32,23,0
1,0.27,-6.72,27.03,52,32,22,0
1,0.27,-3.88,27.03,51,32,22,0
1,0.27,3.64,27.03,51,32,23,0
1,0.27,4.43,27.03,50,32,22,0
1,0.27,-0.34,27.03,58,33,20,0
1,0.28,2.47,27.03,52,34,15,0
1,0.27,-1.96,27.05,58,26,15,0
1,0.27,-3.26,27.05,63,1,15,0
1,0.27,3.21,27.05,58,19,16,0
1,0.27,-6.11,27.05,61,9,23,0
1,0.27,-6.22,27.03,68,13,19,0
1,0.27,-19.67,27.03,67,11,15,0
1,0.27,26.02,27.03,65,9,13,0
1,0.27,-28.75,27.03,64,9,10,0
1,0.27,-31.7,27.03,64,9,13,0
1,0.27,-13.48,27.03,65,8,11,0
1,0.27,-11.53,27.03,63,9,11,0
1,0.27,2.99,27.03,64,8,12,0
1,0.27,16.71,27.05,63,8,11,0
1,0.27,-0.03,27.05,64,8,9,0
1,0.27,-2.41,27.05,64,9,8,0
1,0.27,8.16,27.05,64,8,7,0
1,0.27,7.42,27.01,65,8,8,0
1,0.27,0.46,27.01,65,8,8,0
1,0,-0.03,30.65,-34,-34,45,0
1,0.02,5.06,30.65,-35,-34,45,0
1,0.05,17.91,30.65,-35,-34,45,0
1,0.04,79.34,30.65,-34,-33,45,0
1,0.04,228.25,30.65,-34,-34,44,0
1,0.05,-486.5,30.65,-34,-34,45,0
1,0.05,-5.9,30.65,-35,-34,45,0
1,0.05,156.15,30.65,-35,-34,45,0
1,0.04,46.78,30.63,-34,-34,45,0
1,0.04,4.05,30.63,-33,-33,46,0
1,0.05,0.16,30.63,-35,-33,45,0
1,0.05,0.85,30.63,-35,-33,45,0
1,0.05,3.75,30.61,-35,-34,45,0
1,0.05,14.72,30.61,-35,-33,45,0
1,0.05,13.63,30.61,-35,-34,45,0
1,0.05,-13.9,30.61,-35,-33,45,0
1,0.05,16.74,30.59,-35,-33,45,0
1,0.05,68.02,30.59,-35,-34,45,0
1,0.05,53.78,30.59,-35,-34,45,0
1,0.05,-271.96,30.59,-35,-33,45,0
1,0.05,-20.27,30.57,-35,-33,45,0
1,0.05,29.45,30.57,-35,-33,45,0
1,0.05,33.27,30.57,-34,-34,45,0
1,0.05,24.06,30.57,-35,-33,45,0
1,0.04,-3.93,30.57,-36,-33,45,0
1,0.05,11.8,30.57,-35,-34,45,0
1,0.05,10.99,30.57,-35,-33,45,0
1,0.05,-23.35,30.57,-34,-34,46,0
1,0.05,11.13,30.53,-34,-34,46,0
1,0.05,20.12,30.53,-35,-34,46,0
1,0.05,19.03,30.53,-34,-33,46,0
1,0.05,-27.8,30.53,-35,-34,45,0
1,0.05,-35.67,30.51,-36,-34,44,0
1,0.05,-54.91,30.51,-34,-34,45,0
1,0.05,-11.77,30.51,-35,-33,45,0
1,0.05,-6.1,30.51,-35,-33,45,0
1,0.05,75.83,30.49,-35,-33,45,0
1,0.05,19.81,30.49,-35,-33,44,0
1,0.04,-10.68,30.49,-35,-33,45,0
1,0.04,-32.5,30.49,-35,-34,45,0
1,0.04,12.83,30.47,-35,-34,45,0
1,0.04,7.02,30.47,-35,-33,44,0
1,0.05,-24.41,30.47,-34,-33,45,0
1,0.05,14.03,30.47,-36,-34,44,0
1,0.05,-0.22,30.47,-35,-33,45,0
1,0.04,-6.34,30.47,-35,-34,45,0
1,0.04,10.81,30.47,-35,-33,45,0
1,0.05,-1.19,30.47,-35,-34,45,0
1,0.04,-34.24,30.43,-35,-34,44,0
1,0.05,15.32,30.43,-35,-33,45,0
1,0.04,-6.69,30.43,-35,-33,45,0
1,0.05,-6.35,30.43,-35,-33,45,0
1,0.04,16.36,30.41,-35,-33,45,0
1,0.04,-0.63,30.41,-35,-32,46,0
1,0.05,8.76,30.41,-35,-35,46,0
1,0.04,19.55,30.41,-29,-35,45,0
1,0.04,-8.56,30.41,-28,-36,48,0
1,0.04,-28.93,30.41,-31,-35,47,0
1,0.05,-35.5,30.41,-31,-34,46,0
1,0.05,31.11,30.41,-28,-33,47,0
1,0.04,3.65,30.37,-31,-37,44,0
1,0.04,7.65,30.37,-32,-34,47,0
1,0.04,-12.42,30.37,-34,-34,46,0
1,0.04,24.08,30.37,-33,-34,46,0
1,0.04,10.79,30.33,-33,-34,46,0
1,0.04,-21.66,30.33,-32,-34,46,0
1,0.05,39.22,30.33,-32,-34,46,0
1,0.04,18.06,30.33,-33,-34,47,0
1,0.05,-2.45,30.35,-31,-34,47,0
1,0.04,8.81,30.35,-34,-34,47,0
1,0.05,-27.45,30.35,-31,-34,46,0
1,0.04,-88.57,30.35,-32,-35,47,0
1,0.05,129.69,30.33,-32,-35,44,0
1,0.04,71.9,30.33,-28,-36,46,0
1,0.04,-17.78,30.33,-29,-32,44,0
1,0.05,15.56,30.33,-33,-33,48,0
1,0.04,11.98,30.33,-35,-34,45,0
1,0.05,-30.2,30.33,-35,-34,44,0
1,0.04,-3.09,30.33,-35,-34,45,0
1,0.05,-47.95,30.33,-35,-34,45,0
1,0.04,-11.93,30.29,-35,-34,44,0
1,0.05,6.43,30.29,-35,-34,45,0
1,0.05,24.75,30.29,-39,-34,44,0
1,0.04,-6.94,30.29,-35,-34,44,0
1,0.05,40.51,30.27,-33,-34,46,0
1,0.05,0.81,30.27,-23,-34,51,0
1,0.05,12.81,30.27,-19,-36,53,0
1,0.05,18.53,30.27,-22,-36,52,0
1,0.05,-32.27,30.23,-19,-34,52,0
1,0.05,122.83,30.23,-18,-33,52,0
1,0.05,-26.59,30.23,-21,-32,53,0
1,0.05,-5.26,30.23,-26,-31,51,0
1,0.05,158.36,30.23,-25,-31,52,0
1,0.05,-160.16,30.23,-27,-32,51,0
1,0.05,6.42,30.23,-24,-32,52,0
1,0.05,7.07,30.23,-27,-32,50,0
1,0.05,-44.35,30.23,-31,-32,49,0
1,0.05,-41.76,30.23,-35,-32,47,0
1,0.05,-64.02,30.23,-36,-31,47,0
1,0.05,113.12,30.23,-37,-32,46,0
1,0.05,-82.06,30.21,-36,-32,44,0
1,0.05,59.42,30.21,-43,-33,38,0
1,0.05,-158.5,30.21,-50,-33,31,0
1,0.05,30.16,30.21,-48,-33,33,0
1,0.05,286.99,30.21,-48,-33,33,0
1,0.05,107.75,30.21,-48,-33,32,0
1,0.05,2.3,30.21,-48,-33,32,0
1,0.05,-414.58,30.21,-48,-33,31,0
1,0.05,-227.58,30.19,-48,-32,33,0
1,0.05,33.68,30.19,-49,-33,31,0
1,0.05,65.26,30.19,-48,-32,32,0
1,0.05,83.47,30.19,-49,-33,32,0
1,0.05,31.73,30.17,-49,-32,32,0
1,0.05,-31.98,30.17,-48,-32,32,0
1,0.05,27.13,30.17,-48,-33,33,0
1,0.05,28.14,30.17,-48,-32,33,0
1,0.05,19.9,30.15,-47,-34,32,0
1,0.05,102.95,30.15,-48,-33,33,0
1,0,-0.03,33.49,-20,-17,56,0
1,0.16,5.06,33.49,-24,-17,61,0
1,0.23,17.91,33.49,-26,-15,59,0
1,0.22,79.34,33.49,-26,-13,61,0
1,0.22,228.25,33.49,-27,-15,58,0
1,0.23,-486.48,33.49,-22,-15,58,0
1,0.23,-5.1,33.49,-24,-14,62,0
1,0.23,159.69,33.49,-23,-13,60,0
1,0.23,62.15,33.59,-25,-14,59,0
1,0.23,38.37,33.59,-25,-13,59,0
1,0.23,-26.09,33.59,-25,-14,59,0
1,0.23,9.92,33.59,-26,-14,59,0
1,0.23,71.13,33.55,-25,-14,59,0
1,0.23,153.24,33.55,-25,-14,59,0
1,0.23,65.77,33.55,-25,-14,59,0
1,0.23,8.93,33.55,-26,-14,59,0
1,0.23,-9.88,33.5,-25,-14,59,0
1,0.23,-19.43,33.5,-25,-14,59,0
1,0.23,-94.83,33.5,-25,-14,59,0
1,0.23,-328.33,33.5,-25,-14,59,0
1,0.23,-105.01,33.49,-24,-14,59,0
1,0.23,18.73,33.49,-25,-14,59,0
1,0.23,32.98,33.49,-25,-14,59,0
1,0.23,23.65,33.49,-25,-14,59,0
1,0.23,18.05,33.49,-25,-14,59,0
1,0.23,10.09,33.49,-25,-14,59,0
1,0.23,11.29,33.49,-25,-14,59,0
1,0.23,7.27,33.49,-25,-14,59,0
1,0.23,8.44,33.49,-24,-14,59,0
1,0.23,7.77,33.49,-25,-14,59,0
1,0.23,5.03,33.49,-25,-14,59,0
1,0.23,3.62,33.49,-25,-13,60,0
1,0.23,5.16,33.47,-25,-14,59,0
1,0.23,5.69,33.47,-25,-14,59,0
1,0.23,2.1,33.47,-25,-14,59,0
1,0.23,0.98,33.47,-25,-14,59,0
1,0.23,2.38,33.45,-25,-14,59,0
1,0.23,3.85,33.45,-25,-14,59,0
1,0.23,2.71,33.45,-24,-14,59,0
1,0.23,3.21,33.45,-25,-14,59,0
1,0.23,-3.08,33.45,-26,-13,58,0
1,0.23,2.32,33.45,-24,-14,60,0
1,0.23,1.79,33.45,-23,-14,59,0
1,0.23,-0.71,33.45,-23,-14,60,0
1,0.23,-2.07,33.43,-24,-13,60,0
1,0.23,2.28,33.43,-23,-13,60,0
1,0.23,-1.15,33.43,-23,-13,59,0
1,0.23,6.16,33.43,-23,-13,60,0
1,0.23,0.3,33.43,-23,-14,60,0
1,0.23,-3.57,33.43,-23,-14,60,0
1,0.23,4.85,33.43,-23,-14,60,0
1,0.23,-0.41,33.43,-23,-13,60,0
1,0.23,-2.35,33.41,-23,-14,60,0
1,0.23,6.72,33.41,-23,-13,60,0
1,0.23,1.48,33.41,-23,-14,60,0
1,0.23,-1.69,33.41,-22,-14,60,0
1,0.23,1.08,33.39,-23,-14,59,0
1,0.23,-0.77,33.39,-23,-13,59,0
1,0.23,0.3,33.39,-23,-14,60,0
1,0.23,9.36,33.39,-23,-13,59,0
1,0.23,-2.82,33.37,-24,-13,59,0
1,0.23,-5.03,33.37,-24,-13,60,0
1,0.23,-0.03,33.37,-23,-13,59,0
1,0.23,2.99,33.37,-23,-13,60,0
1,0.23,0.79,33.37,-23,-13,60,0
1,0.23,0.29,33.37,-23,-14,61,0
1,0.23,2.04,33.37,-23,-14,60,0
1,0.23,-0.78,33.37,-25,-13,59,0
1,0.23,-3.57,33.37,-21,-8,64,0
1,0.23,-2.74,33.37,-25,-19,56,0
1,0.23,-2.79,33.37,-24,-24,50,0
1,0.23,-17.83,33.37,-21,-15,56,0
1,0.22,-23.32,33.37,-18,-11,51,0
1,0.21,-19.63,33.37,2,8,72,0
1,0.21,-142.37,33.37,-47,4,34,0
1,0.2,-132.62,33.37,-4,20,50,0
1,0.2,-161.3,33.16,-50,37,23,0
1,0.2,-120.93,33.16,-61,35,12,0
1,0.2,281.86,33.16,-47,36,21,0
1,0.2,227.86,33.16,-50,39,18,0
1,0.21,102.9,33.5,-50,40,18,0
1,0.21,52.25,33.5,-49,37,18,0
1,0.21,-35.29,33.5,-51,39,17,0
1,0.2,-27.86,33.5,-49,39,18,0
1,0.2,12.78,33.61,-49,37,20,0
1,0.21,-42.31,33.61,-50,38,18,0
1,0.2,55.11,33.61,-48,38,20,0
1,0.21,-0.07,33.61,-52,31,21,0
1,0.21,-70.83,33.65,-56,26,22,0
1,0.2,43.21,33.65,-56,23,25,0
1,0.2,-7.28,33.65,-55,25,24,0
1,0.2,9.09,33.65,-56,25,24,0
1,0.21,30.87,33.65,-56,26,25,0
1,0.2,-53.91,33.65,-60,21,27,0
1,0.2,64.37,33.65,-57,19,29,0
1,0.2,29.72,33.65,-60,19,28,0
1,0.2,-17.19,33.66,-58,15,28,0
1,0.21,-29.35,33.66,-61,18,31,0
1,0.2,-133.05,33.66,-55,18,35,0
1,0.21,-22.26,33.66,-52,17,33,0
1,0.2,142.3,33.66,-55,17,32,0
1,0.21,48.11,33.66,-56,18,35,0
1,0.21,-5.27,33.66,-55,17,35,0
1,0.21,-1.02,33.66,-54,16,34,0
1,0.21,15.69,33.65,-55,16,34,0
1,0.2,-60.89,33.65,-54,16,34,0
1,0.21,45.39,33.65,-56,16,33,0
1,0.21,19.76,33.65,-55,16,33,0
1,0.21,-53.25,33.65,-56,16,33,0
1,0.21,48.37,33.65,-55,16,34,0
1,0.21,-4.69,33.65,-54,15,33,0
1,0.21,30.84,33.65,-55,16,34,0
1,0.21,10.88,33.63,-55,16,33,0
1,0.21,-60.99,33.63,-55,15,33,0
1,0.21,35.19,33.63,-56,15,32,0
1,0.21,-9.56,33.63,-57,16,32,0
1,0.21,24.48,33.61,-55,16,33,0
1,0.21,15.88,33.61,-55,16,32,0
1,0,-0.03,27.95,18,29,54,0
1,0.24,5.06,27.95,18,29,54,0
1,0.34,17.91,27.95,17,29,54,0
1,0.33,79.34,27.95,20,29,53,0
1,0.33,228.25,27.95,18,29,54,0
1,0.34,-486.5,27.95,18,29,55,0
1,0.34,-5.9,27.95,18,29,54,0
1,0.33,156.15,27.95,17,29,54,0
1,0.34,46.78,27.95,17,29,54,0
1,0.34,4.05,27.95,16,29,54,0
1,0.34,0.17,27.95,17,29,54,0
1,0.34,0.85,27.95,17,29,54,0
1,0.34,3.75,27.95,17,29,54,0
1,0.34,14.69,27.95,20,29,55,0
1,0.34,12.88,27.95,22,29,51,0
1,0.34,-14.66,27.95,34,33,42,0
1,0.33,16.53,27.93,34,34,43,0
1,0.33,71,27.93,32,33,43,0
1,0.33,106.97,27.93,30,32,44,0
1,0.33,-3.21,27.93,38,33,40,0
1,0.33,-269.74,27.93,34,32,41,0
1,0.33,-26.35,27.93,36,31,42,0
1,0.33,35.56,27.93,37,32,41,0
1,0.33,21.61,27.93,36,32,42,0
1,0.33,-15.96,27.91,38,33,40,0
1,0.33,-34.31,27.91,40,33,40,0
1,0.33,-13.06,27.91,37,33,42,0
1,0.33,22.06,27.91,36,32,42,0
1,0.33,-8.06,27.91,36,32,42,0
1,0.33,31.08,27.91,36,32,42,0
1,0.33,38.39,27.91,36,32,41,0
1,0.33,-53.65,27.91,37,33,44,0
1,0.33,2.75,27.89,36,33,35,0
1,0.34,8.89,27.89,36,32,41,0
1,0.33,5.04,27.89,39,34,39,0
1,0.33,0.92,27.89,36,32,41,0
1,0.33,4.5,27.87,32,32,45,0
1,0.34,12.6,27.87,30,32,45,0
1,0.33,-30.5,27.87,33,31,46,0
1,0.33,17.59,27.87,32,32,45,0
1,0.33,-33.39,27.87,36,32,43,0
1,0.33,10.42,27.87,34,32,43,0
1,0.34,-12.82,27.87,36,31,45,0
1,0.33,-0.21,27.87,33,31,45,0
1,0.33,37.85,27.87,34,32,44,0
1,0.34,-14.96,27.87,30,31,47,0
1,0.33,15.15,27.87,31,31,46,0
1,0.34,38.39,27.87,30,31,47,0
1,0.34,61.25,27.83,30,31,46,0
1,0.34,-3.87,27.83,30,30,47,0
1,0.34,-35.83,27.83,32,31,46,0
1,0.33,-47.58,27.83,30,31,46,0
1,0.34,-20.21,27.87,31,31,47,0
1,0.34,12.19,27.87,32,29,45,0
1,0.34,8.57,27.87,31,31,46,0
1,0.34,9.18,27.87,31,31,46,0
1,0.34,-9.16,27.83,31,32,47,0
1,0.34,-2.75,27.83,30,31,47,0
1,0.34,42.99,27.83,30,31,47,0
1,0.34,-22.49,27.83,30,31,47,0
1,0.34,12.23,27.83,30,30,47,0
1,0.34,7,27.83,29,31,48,0
1,0.33,-16.72,27.83,28,30,48,0
1,0.34,19.32,27.83,29,31,48,0
1,0.34,0.34,27.81,29,31,48,0
1,0.34,-7.56,27.81,29,31,47,0
1,0.34,2.92,27.81,29,31,48,0
1,0.34,-11.19,27.81,30,30,48,0
1,0.34,-32.69,27.77,29,30,48,0
1,0.34,20.27,27.77,29,30,48,0
1,0.34,15.58,27.77,29,30,48,0
1,0.34,-12.04,27.77,29,30,47,0
1,0.34,2.53,27.77,29,31,47,0
1,0.34,-5.1,27.77,31,31,46,0
1,0.34,-0.71,27.77,31,31,47,0
1,0.34,23.89,27.77,30,31,46,0
1,0.34,27.07,27.77,31,31,47,0
1,0.34,92.52,27.77,31,30,47,0
1,0.34,-30.77,27.77,31,31,47,0
1,0.34,-32.82,27.77,31,31,46,0
1,0.34,-9.04,27.77,31,31,46,0
1,0.34,10.26,27.77,32,31,46,0
1,0.34,0.72,27.77,32,31,46,0
1,0.33,4.72,27.77,31,31,46,0
1,0.34,24.05,27.75,32,31,45,0
1,0.34,-14.17,27.75,32,31,45,0
1,0.34,-4.43,27.75,32,31,45,0
1,0.34,12.55,27.75,32,31,46,0
1,0.34,-11.58,27.75,32,31,46,0
1,0.34,-1.4,27.75,32,31,45,0
1,0.34,-0.43,27.75,32,31,46,0
1,0.34,-11.9,27.75,32,31,46,0
1,0.34,-2.79,27.77,32,31,45,0
1,0.34,-11.67,27.77,32,31,45,0
1,0.34,-10.39,27.77,32,31,45,0
1,0.34,11.44,27.77,32,31,45,0
1,0.34,3.07,27.73,33,31,45,0
1,0.34,5.12,27.73,33,31,46,0
1,0.34,0.83,27.73,32,31,46,0
1,0.34,-19.96,27.73,32,31,46,0
1,0.34,-16.3,27.75,31,31,46,0
1,0.34,36.93,27.75,30,31,45,0
1,0.34,-20.13,27.75,30,32,47,0
1,0.34,-3.9,27.75,30,32,46,0
1,0.34,-27.73,27.73,32,32,46,0
1,0.34,9.14,27.73,31,31,46,0
1,0.34,34.02,27.73,31,32,45,0
1,0.34,16.07,27.73,31,31,46,0
1,0.34,19.99,27.71,31,31,47,0
1,0.34,1.99,27.71,30,31,46,0
1,0.34,-19.99,27.71,31,31,46,0
1,0.34,6.94,27.71,30,31,47,0
1,0.34,0.69,27.77,30,31,47,0
1,0.34,-5.97,27.77,30,31,47,0
1,0.34,17.28,27.77,30,31,47,0
1,0.34,4.21,27.77,30,31,47,0
1,0.34,-16.94,27.73,30,31,47,0
1,0.34,0.3,27.73,30,31,47,0
1,0,-0.03,31.03,72,11,28,1
1,0.09,5.06,31.03,66,-51,54,1
1,0.14,17.91,31.03,30,-18,44,1
1,0.14,79.34,31.03,-24,-77,12,1
1,0.15,228.25,31.03,9,-22,54,1
1,0.19,-486.42,31.03,2,-7,64,1
1,0.19,-6.01,31.03,6,7,72,1
1,0.19,154.76,31.03,39,2,69,1
1,0.18,32.66,31.13,79,24,36,1
1,0.17,-16.04,31.13,45,8,48,1
1,0.17,-29.38,31.13,23,8,55,1
1,0.16,-9.28,31.13,32,9,59,1
1,0.16,-5.46,31.11,26,8,60,1
1,0.16,2.31,31.11,25,9,59,1
1,0.15,8.32,31.11,31,12,55,1
1,0.15,18.72,31.11,21,7,60,1
1,0.14,15.08,31.05,19,8,61,1
1,0.15,-63.81,31.05,19,8,62,1
1,0.15,-60.33,31.05,19,9,59,1
1,0.14,-1.21,31.05,24,12,55,1
1,0.14,-74.34,31.11,27,14,52,1
1,0.14,209.16,31.11,29,12,57,1
1,0.14,11.51,31.11,50,7,57,1
1,0.14,-41.12,31.11,73,11,62,1
1,0.14,30.9,31.17,27,12,62,1
1,0.15,65.97,31.17,9,11,64,1
1,0.14,-105.74,31.17,13,6,59,1
1,0.14,40.38,31.17,4,8,66,1
1,0.14,-155.78,31.23,5,10,63,1
1,0.14,108.79,31.23,7,10,62,1
1,0.14,185.57,31.23,6,11,62,1
1,0.13,74.97,31.23,13,11,62,1
1,0.13,-38.17,31.05,8,10,65,1
1,0.13,-257.05,31.05,6,9,63,1
1,0.13,168.09,31.05,5,9,64,1
1,0.13,5.9,31.05,6,9,63,1
1,0.13,-102.95,30.95,6,8,64,1
1,0.13,-34.4,30.95,7,6,66,1
1,0.13,20.12,30.95,7,7,64,1
1,0.12,267.68,30.95,6,7,64,1
1,0.13,-40.2,31.25,6,7,64,1
1,0.13,-10.99,31.25,5,5,63,1
1,0.13,-89.37,31.25,5,6,64,1
1,0.13,-123.25,31.25,6,5,64,1
1,0.13,47.51,31.37,5,6,64,1
1,0.13,20.87,31.37,7,7,63,1
1,0.13,101.39,31.37,8,7,63,1
1,0.13,24.31,31.37,7,6,63,1
1,0.13,23.38,31.43,10,7,64,1
1,0.13,-28.01,31.43,6,7,64,1
1,0.13,161.04,31.43,5,6,64,1
1,0.13,22.71,31.43,5,7,63,1
1,0.13,-355.41,31.49,4,6,64,1
1,0.12,-180.21,31.49,2,7,64,1
1,0.12,212.71,31.49,1,8,63,1
1,0.12,117.33,31.49,0,8,64,1
1,0.12,107.04,31.51,0,6,64,1
1,0.12,-93.6,31.51,3,10,64,1
1,0.12,42.76,31.51,2,10,63,1
1,0.12,133.37,31.51,4,9,64,1
1,0.12,101.63,31.57,8,11,64,1
1,0.12,35.55,31.57,2,11,60,1
1,0.12,-160.06,31.57,6,11,63,1
1,0.12,-161.57,31.57,4,11,63,1
1,0.12,24.81,31.59,5,11,63,1
1,0.12,68.26,31.59,7,11,63,1
1,0.12,-115.76,31.59,6,11,62,1
1,0.12,-20.74,31.59,9,12,60,1
1,0.12,49.05,31.55,11,10,66,1
1,0.12,38.91,31.55,9,11,62,1
1,0.13,13.7,31.55,9,11,62,1
1,0.12,17.15,31.55,8,11,62,1
1,0.12,-41.92,31.53,7,11,62,1
1,0.12,10.74,31.53,8,11,63,1
1,0.12,4.74,31.53,10,10,62,1
1,0.12,-2.91,31.53,9,11,62,1
1,0.12,27.82,31.51,9,11,63,1
1,0.12,-6.97,31.51,8,12,63,1
1,0.12,-3.11,31.51,9,11,63,1
1,0.12,-66.68,31.51,9,12,63,1
1,0.12,23.12,31.49,10,13,62,1
1,0.12,-52.58,31.49,10,12,62,1
1,0.12,-22.71,31.49,17,14,64,1
1,0.12,-78.39,31.49,4,14,57,1
1,0.12,12.01,31.49,53,20,23,1
1,0.12,65.72,31.49,49,24,-30,1
1,0.12,-28.04,31.49,40,18,-41,1
1,0.12,-89.54,31.49,36,16,-59,1
1,0.12,167.35,31.47,28,14,-53,1
1,0.11,294.2,31.47,25,14,-55,1
1,0.1,-162.05,31.47,27,13,-55,1
1,0.1,-61.81,31.47,28,13,-58,1
1,0.1,90.75,31.57,30,13,-66,1
1,0.1,-84.86,31.57,12,17,-58,1
1,0.1,15.81,31.57,13,18,-64,1
1,0.1,36.63,31.57,5,19,-57,1
1,0.09,-19.34,31.59,5,18,-56,1
1,0.08,34.53,31.59,10,18,-61,1
1,0.08,-89.19,31.59,13,18,-58,1
1,0.09,193.33,31.59,15,19,-60,1
1,0.11,-109.43,31.63,13,16,-57,1
1,0.11,-101.5,31.63,13,20,-64,1
1,0.12,27.15,31.63,11,17,-57,1
1,0.13,70.94,31.63,10,18,-59,1
1,0.13,112.54,31.65,9,18,-59,1
1,0.13,-81.88,31.65,5,17,-61,1
1,0.14,-186.91,31.65,5,17,-63,1
1,0.14,-46.08,31.65,7,17,-60,1
1,0.14,12.48,31.69,6,17,-62,1
1,0.15,209.45,31.69,7,16,-61,1
1,0.15,88.73,31.69,8,18,-56,1
1,0.16,-13.48,31.69,9,18,-60,1
1,0.15,-20.82,31.71,8,18,-56,1
1,0.16,-18.95,31.71,11,17,-58,1
1,0.17,15.58,31.71,9,21,-63,1
1,0.17,208.27,31.71,10,20,-61,1
1,0.16,-239.54,31.71,10,21,-60,1
1,0.15,39.32,31.71,14,21,-63,1
1,0,-0.03,27.11,22,43,41,0
1,0.2,5.06,27.11,23,43,40,0
1,0.3,17.91,27.11,22,43,40,0
1,0.3,79.34,27.11,22,43,41,0
1,0.3,228.25,27.11,23,44,41,0
1,0.3,-486.5,27.11,22,43,41,0
1,0.3,-5.9,27.11,22,43,41,0
1,0.3,156.15,27.11,22,43,42,0
1,0.3,46.78,27.11,21,43,40,0
1,0.3,4.05,27.11,22,43,42,0
1,0.3,0.18,27.11,20,42,42,0
1,0.3,0.9,27.11,22,43,41,0
1,0.3,4,27.09,22,43,41,0
1,0.3,15.41,27.09,22,43,41,0
1,0.3,10.25,27.09,22,43,41,0
1,0.3,-14.03,27.09,21,43,41,0
1,0.3,13.49,27.09,22,43,41,0
1,0.3,50.54,27.09,22,43,42,0
1,0.3,-13.1,27.09,22,43,41,0
1,0.3,-100.26,27.09,22,43,41,0
1,0.3,19.23,27.09,21,43,41,0
1,0.3,8.59,27.09,22,43,42,0
1,0.3,26.01,27.09,21,43,42,0
1,0.3,16.23,27.09,22,43,42,0
1,0.3,-14.43,27.07,22,43,41,0
1,0.3,11.58,27.07,24,44,39,0
1,0.3,4.49,27.07,23,45,39,0
1,0.3,-13.62,27.07,24,44,41,0
1,0.3,9.02,27.07,21,43,40,0
1,0.3,5.57,27.07,22,43,40,0
1,0.3,-12.34,27.07,22,43,40,0
1,0.3,16.31,27.07,20,43,40,0
1,0.3,9.4,27.05,23,43,40,0
1,0.3,-30.58,27.05,24,43,40,0
1,0.3,9.02,27.05,23,44,40,0
1,0.3,18.39,27.05,23,43,41,0
1,0.3,-21.19,27.05,22,43,39,0
1,0.3,-7.99,27.05,22,43,40,0
1,0.3,3.07,27.05,23,44,39,0
1,0.31,13,27.05,24,44,40,0
1,0.3,15.48,27.03,22,43,40,0
1,0.3,0.56,27.03,21,43,41,0
1,0.3,-16.66,27.03,22,44,39,0
1,0.3,3.63,27.03,22,43,41,0
1,0.3,-8.21,27.03,22,43,40,0
1,0.3,-16.19,27.03,22,43,40,0
1,0.3,11.16,27.03,23,44,39,0
1,0.3,-4,27.03,21,43,41,0
1,0.3,-11.19,27.05,23,44,40,0
1,0.3,22.66,27.05,23,44,40,0
1,0.3,8.69,27.05,22,44,40,0
1,0.3,-9.78,27.05,22,43,39,0
1,0.3,7.22,27.03,22,44,40,0
1,0.3,0.06,27.03,23,43,38,0
1,0.3,-13.27,27.03,23,44,37,0
1,0.3,-9.29,27.03,23,45,40,0
1,0.3,-20.37,27.05,22,46,39,0
1,0.3,-13.18,27.05,23,44,39,0
1,0.3,28.7,27.05,31,46,33,0
1,0.3,-6.15,27.05,28,44,38,0
1,0.3,-33.87,27.03,25,43,39,0
1,0.3,-25.85,27.03,24,45,39,0
1,0.3,30.62,27.03,22,46,33,0
1,0.3,54.92,27.03,21,48,32,0
1,0.3,143.79,27.03,29,47,32,0
1,0.31,-45.32,27.03,33,47,32,0
1,0.31,-137.26,27.03,33,45,30,0
1,0.32,60.85,27.03,35,44,30,0
1,0.32,114.7,27.01,37,45,28,0
1,0.32,178.79,27.01,37,45,29,0
1,0.32,-112.13,27.01,35,44,28,0
1,0.31,4.42,27.01,31,43,27,0
1,0.32,-74.22,27.03,35,44,32,0
1,0.32,-35.1,27.03,32,47,27,0
1,0.32,-41.23,27.03,36,47,29,0
1,0.32,20.6,27.03,32,46,33,0
1,0.31,78.94,27.03,31,46,32,0
1,0.32,-45,27.03,30,45,34,0
1,0.31,-10.08,27.03,33,45,31,0
1,0.31,16.23,27.03,31,45,33,0
1,0.32,-83.32,27.05,33,44,35,0
1,0.32,-161.96,27.05,31,45,29,0
1,0.32,-77.68,27.05,38,44,30,0
1,0.31,-18.1,27.05,34,44,30,0
1,0.32,-43.48,27.05,34,45,31,0
1,0.32,-84.27,27.05,34,44,31,0
1,0.32,113.31,27.05,34,44,30,0
1,0.31,306.37,27.05,32,44,31,0
1,0.32,101.16,27.05,34,44,33,0
1,0.31,190.07,27.05,31,44,29,0
1,0.32,53.17,27.05,34,45,32,0
1,0.32,18.08,27.05,35,45,29,0
1,0.32,-144.02,27.07,35,45,29,0
1,0.32,-53.84,27.07,36,45,30,0
1,0.32,-152.55,27.07,35,45,30,0
1,0.32,48.36,27.07,35,45,29,0
1,0.32,-85.3,27.09,35,45,29,0
1,0.32,100.16,27.09,34,45,29,0
1,0.32,81.34,27.09,36,44,30,0
1,0.32,27.62,27.09,35,45,29,0
1,0.32,-93.54,27.07,36,45,29,0
1,0.32,27.29,27.07,34,45,29,0
1,0.32,17.53,27.07,35,44,29,0
1,0.32,-0.59,27.07,35,45,30,0
1,0.32,23.23,27.09,36,44,30,0
1,0.32,44.97,27.09,35,45,29,0
1,0.32,29.77,27.09,35,45,29,0
1,0.32,-68.8,27.09,35,45,30,0
1,0.32,-9.34,27.09,34,45,30,0
1,0.32,-12.27,27.09,35,45,30,0
1,0.32,-22.39,27.09,34,45,29,0
1,0.32,-2.85,27.09,34,45,29,0
1,0.32,11.48,27.11,35,44,30,0
1,0.32,3.69,27.11,35,44,29,0
1,0.32,19.02,27.11,35,45,29,0
1,0.32,-23.2,27.11,35,45,29,0
1,0.32,7.05,27.15,35,45,29,0
1,0.32,46.12,27.15,35,45,30,0
1,0,-0.03,31.63,-13,-18,62,0
1,0.04,5.06,31.63,-15,-18,62,0
1,0.08,17.91,31.63,-14,-17,62,0
1,0.08,79.34,31.63,-16,-17,60,0
1,0.08,228.25,31.63,3,-12,63,0
1,0.08,-486.47,31.63,9,-3,72,0
1,0.08,-5.02,31.63,13,-2,69,0
1,0.09,160.09,31.63,4,-8,66,0
1,0.09,63.4,31.61,1,-9,65,0
1,0.09,35.3,31.61,3,-9,65,0
1,0.08,-22.52,31.61,1,-10,64,0
1,0.09,10.78,31.61,0,-10,64,0
1,0.08,79.85,31.59,-1,-10,64,0
1,0.09,157.88,31.59,-1,-10,64,0
1,0.09,61.42,31.59,0,-10,64,0
1,0.08,3.83,31.59,-1,-10,65,0
1,0.09,-3.45,31.57,4,-11,63,0
1,0.08,-7.97,31.57,0,-11,64,0
1,0.09,-12.42,31.57,-1,-11,64,0
1,0.09,-27.72,31.57,-1,-11,64,0
1,0.09,-116.2,31.57,-2,-11,64,0
1,0.09,-391.69,31.57,-3,-11,63,0
1,0.08,-67.77,31.57,-2,-11,64,0
1,0.08,32.32,31.57,-1,-13,63,0
1,0.08,55.27,31.55,-2,-11,64,0
1,0.09,16.29,31.55,-2,-11,64,0
1,0.09,-10.43,31.55,-1,-11,64,0
1,0.09,19.7,31.55,-2,-11,64,0
1,0.08,-35.76,31.51,-3,-11,64,0
1,0.09,60.46,31.51,-3,-12,63,0
1,0.08,38.33,31.51,-3,-12,64,0
1,0.08,4.61,31.51,-3,-12,64,0
1,0.08,22.61,31.49,-3,-12,64,0
1,0.08,-10.86,31.49,-3,-12,63,0
1,0.08,26.54,31.49,-3,-12,64,0
1,0.08,20.89,31.49,-2,-12,64,0
1,0.08,-18.3,31.51,-3,-12,64,0
1,0.09,14.75,31.51,-2,-12,63,0
1,0.08,-15.46,31.51,-2,-11,64,0
1,0.08,-21.16,31.51,-3,-12,64,0
1,0.08,22.43,31.49,-3,-12,63,0
1,0.08,-22.65,31.49,-3,-12,64,0
1,0.09,26.16,31.49,-3,-12,64,0
1,0.08,32.36,31.49,-2,-12,64,0
1,0.08,-48.79,31.47,-2,-12,64,0
1,0.08,36.69,31.47,-3,-12,63,0
1,0.08,-9.83,31.47,-3,-12,64,0
1,0.09,9.23,31.47,-3,-12,64,0
1,0.08,10.65,31.47,-3,-12,65,0
1,0.08,-48.85,31.47,-2,-12,65,0
1,0.08,39.32,31.47,-3,-12,64,0
1,0.08,16.22,31.47,-3,-12,64,0
1,0.08,-4.09,31.45,-4,-12,64,0
1,0.08,-42.65,31.45,-3,-12,64,0
1,0.08,-1.65,31.45,-2,-12,63,0
1,0.08,32.35,31.45,-2,-12,64,0
1,0.08,20.3,31.43,2,-12,64,0
1,0.08,-8.6,31.43,5,-13,64,0
1,0.08,48.98,31.43,5,-13,64,0
1,0.08,31.11,31.43,5,-14,63,0
1,0.08,-13.8,31.41,2,-13,63,0
1,0.08,105.04,31.41,3,-13,63,0
1,0.08,-22.06,31.41,2,-13,63,0
1,0.08,-47.62,31.41,1,-13,63,0
1,0.08,-49.14,31.39,0,-13,63,0
1,0.08,-11.81,31.39,-1,-13,63,0
1,0.08,23.8,31.39,0,-12,64,0
1,0.08,-26.33,31.39,-1,-13,64,0
1,0.09,-63.92,31.39,0,-13,64,0
1,0.09,50.41,31.39,0,-13,64,0
1,0.08,21.63,31.39,-1,-13,63,0
1,0.08,-4.56,31.39,0,-13,64,0
1,0.09,23.34,31.35,0,-13,63,0
1,0.09,-13.63,31.35,0,-13,63,0
1,0.08,24.6,31.35,0,-13,64,0
1,0.08,7.1,31.35,0,-12,63,0
1,0.09,-48.15,31.33,-1,-12,64,0
1,0.08,36.18,31.33,-1,-12,64,0
1,0.08,-7.49,31.33,-1,-12,63,0
1,0.08,-27.26,31.33,-1,-12,63,0
1,0.08,21.53,31.35,-1,-12,64,0
1,0.09,14.7,31.35,-1,-12,63,0
1,0.09,8.7,31.35,-1,-12,64,0
1,0.08,0.59,31.35,0,-12,64,0
1,0.09,-19.43,31.33,0,-13,64,0
1,0.08,35.01,31.33,0,-12,64,0
1,0.08,16.32,31.33,0,-12,64,0
1,0.08,-50.18,31.33,0,-12,64,0
1,0.08,29.95,31.33,0,-13,64,0
1,0.09,-9.84,31.33,0,-13,63,0
1,0.09,-7.04,31.33,-1,-13,63,0
1,0.09,21.86,31.33,0,-12,63,0
1,0.09,-28.68,31.31,-1,-13,63,0
1,0.09,21.67,31.31,0,-12,64,0
1,0.09,5.58,31.31,0,-13,64,0
1,0.09,-37.88,31.31,0,-12,64,0
1,0.09,53.72,31.29,0,-12,64,0
1,0.09,19.58,31.29,4,-11,65,0
1,0.09,-51.61,31.29,6,-12,65,0
1,0.09,17.82,31.29,-1,-15,67,0
1,0.08,-6.81,31.31,-6,-15,63,0
1,0.09,27.99,31.31,-8,-17,66,0
1,0.09,-133.47,31.31,-11,-16,60,0
1,0.09,-264.8,31.31,1,-17,58,0
1,0.09,167.77,31.27,-4,-19,64,0
1,0.09,71.07,31.27,-4,-19,62,0
1,0.09,-124.77,31.27,-4,-19,64,0
1,0.09,-74.28,31.27,-5,-19,63,0
1,0.09,261.12,31.27,-5,-21,62,0
1,0.09,113.23,31.27,-6,-20,62,0
1,0.09,18.93,31.27,-5,-21,60,0
1,0.09,-1.77,31.27,-6,-21,62,0
1,0.09,-12.17,31.23,-5,-21,62,0
1,0.09,-4.88,31.23,-5,-22,61,0
1,0.09,-14.09,31.23,-6,-22,61,0
1,0.09,0.53,31.23,-9,-20,62,0
1,0.09,2.03,31.25,-11,-21,61,0
1,0.09,-12.75,31.25,-11,-21,60,0
1,0,-0.03,34.84,59,-28,3,0
1,0.08,5.06,34.84,60,-28,1,0
1,0.13,17.91,34.84,60,-27,-3,0
1,0.13,79.34,34.84,60,-26,-1,0
1,0.13,228.25,34.84,59,-27,-1,0
1,0.13,-486.5,34.84,61,-26,-1,0
1,0.13,-5.63,34.84,60,-26,-2,0
1,0.13,157.71,34.84,61,-27,-1,0
1,0.13,54.14,34.81,60,-27,-1,0
1,0.13,29.96,34.81,60,-27,-1,0
1,0.13,-5.59,34.81,60,-27,-1,0
1,0.13,-4.75,34.81,60,-27,-1,0
1,0.13,34.4,34.81,60,-27,-1,0
1,0.13,112.85,34.81,61,-27,-1,0
1,0.13,114.85,34.81,60,-27,-1,0
1,0.13,4.53,34.81,60,-27,0,0
1,0.13,-127.17,34.81,60,-27,0,0
1,0.13,-365.04,34.81,60,-27,0,0
1,0.13,-23.29,34.81,59,-27,0,0
1,0.13,48.45,34.81,60,-27,0,0
1,0.13,34.2,34.79,61,-27,0,0
1,0.13,14.09,34.79,60,-27,1,0
1,0.13,13.94,34.79,60,-27,1,0
1,0.13,18.38,34.79,60,-27,1,0
1,0.13,-1.93,34.75,60,-27,1,0
1,0.13,-22.61,34.75,60,-27,1,0
1,0.13,-6.46,34.75,59,-28,1,0
1,0.14,3.47,34.75,60,-27,1,0
1,0.13,12.06,34.75,60,-27,0,0
1,0.13,5.62,34.75,59,-28,0,0
1,0.13,-14.46,34.75,59,-27,0,0
1,0.13,-11.51,34.75,60,-27,0,0
1,0.14,-6.11,34.73,60,-27,0,0
1,0.13,8.2,34.73,60,-27,0,0
1,0.13,19.54,34.73,60,-27,0,0
1,0.13,-6.53,34.73,59,-27,1,0
1,0.14,-11.61,34.75,60,-27,0,0
1,0.14,-8.67,34.75,60,-27,0,0
1,0.14,0.58,34.75,60,-27,1,0
1,0.13,-1.21,34.75,60,-26,1,0
1,0.13,6.91,34.71,60,-26,1,0
1,0.13,-5.05,34.71,60,-27,1,0
1,0.14,-29.26,34.71,60,-27,1,0
1,0.13,-17.8,34.71,60,-26,1,0
1,0.13,12.56,34.68,61,-26,1,0
1,0.14,15.42,34.68,59,-26,1,0
1,0.14,5.69,34.68,61,-26,1,0
1,0.14,-3.16,34.68,60,-26,1,0
1,0.14,5.96,34.71,60,-27,0,0
1,0.13,5.06,34.71,63,-27,0,0
1,0.14,-17.3,34.71,59,-27,4,0
1,0.13,-9.69,34.71,59,-29,3,0
1,0.14,-7.17,34.68,58,-30,4,0
1,0.13,-30.23,34.68,58,-29,5,0
1,0.14,-36.05,34.68,61,-27,4,0
1,0.14,-18.3,34.68,59,-28,4,0
1,0.14,44.08,34.66,60,-28,4,0
1,0.14,-18.5,34.66,59,-27,4,0
1,0.13,2.13,34.66,59,-27,4,0
1,0.14,41.2,34.66,59,-28,4,0
1,0.14,21.25,34.65,60,-27,5,0
1,0.14,11.09,34.65,59,-27,4,0
1,0.14,-15.93,34.65,60,-28,4,0
1,0.14,-5.21,34.65,60,-27,4,0
1,0.14,-2.84,34.65,60,-27,4,0
1,0.14,-0.56,34.65,59,-27,5,0
1,0.14,6.27,34.65,59,-27,5,0
1,0.14,-12.93,34.65,60,-27,5,0
1,0.14,-9.52,34.65,60,-27,5,0
1,0.14,24.14,34.65,60,-27,5,0
1,0.14,-2.86,34.65,60,-27,5,0
1,0.14,1.38,34.65,59,-27,5,0
1,0.14,-12.5,34.63,59,-27,5,0
1,0.14,2.72,34.63,59,-27,5,0
1,0.14,2.78,34.63,59,-28,5,0
1,0.14,-3.25,34.63,59,-28,5,0
1,0.14,-5.1,34.63,59,-28,5,0
1,0.14,0.12,34.63,59,-28,4,0
1,0.14,-7.63,34.63,59,-28,4,0
1,0.14,-18.66,34.63,59,-30,5,0
1,0.14,4.26,34.63,59,-29,6,0
1,0.14,-8.57,34.63,58,-28,6,0
1,0.14,-35.4,34.63,59,-28,6,0
1,0.14,-72.76,34.63,59,-29,7,0
1,0.14,-50.68,34.63,59,-29,7,0
1,0.14,251.83,34.63,58,-31,8,0
1,0.14,-39.68,34.63,57,-30,8,0
1,0.14,-353.08,34.63,57,-30,10,0
1,0.13,184.47,34.59,58,-30,9,0
1,0.14,308.1,34.59,58,-28,10,0
1,0.14,-456.85,34.59,58,-28,10,0
1,0.14,-84.2,34.59,58,-28,10,0
1,0.14,300.7,34.49,58,-27,10,0
1,0.14,1220.42,34.49,59,-27,10,0
1,0.14,-350.96,34.49,58,-28,9,0
1,0.14,-461.64,34.49,59,-28,9,0
1,0.14,-86.09,34.63,59,-27,9,0
1,0.14,111.53,34.63,58,-28,10,0
1,0.14,76.92,34.63,58,-28,10,0
1,0.14,22.23,34.63,59,-28,10,0
1,0.13,32.61,34.63,59,-27,10,0
1,0.14,-280.32,34.63,58,-27,10,0
1,0.14,-151.65,34.63,59,-28,10,0
1,0.14,-21.12,34.63,59,-28,11,0
1,0.14,669.06,34.57,58,-27,11,0
1,0.14,308.08,34.57,58,-27,12,0
1,0.14,-100.67,34.57,58,-27,12,0
1,0.14,-356.11,34.57,59,-27,12,0
1,0.14,-107.12,34.57,58,-26,12,0
1,0.14,-175.34,34.57,56,-27,11,0
1,0.14,71.99,34.57,59,-26,11,0
1,0.14,-47.78,34.57,60,-26,11,0
1,0.14,-219.97,34.57,59,-26,11,0
1,0.14,354.71,34.57,60,-25,11,0
1,0.14,459.43,34.57,60,-25,10,0
1,0.14,138.18,34.57,60,-27,9,0
1,0.14,-53.35,34.57,59,-27,9,0
1,0.14,-6.32,34.57,60,-26,8,0
1,0,-0.03,36.31,48,-30,33,1
1,0.07,5.06,36.31,48,-30,33,1
1,0.13,17.91,36.31,48,-30,33,1
1,0.12,79.34,36.31,48,-30,33,1
1,0.12,228.25,36.31,48,-30,33,1
1,0.12,-486.5,36.31,49,-30,33,1
1,0.12,-5.9,36.31,48,-30,33,1
1,0.12,156.15,36.31,48,-30,33,1
1,0.12,46.78,36.27,48,-30,33,1
1,0.12,4.05,36.27,48,-30,33,1
1,0.12,0.18,36.27,48,-30,33,1
1,0.12,0.91,36.27,48,-30,33,1
1,0.12,4.01,36.27,48,-30,33,1
1,0.12,15.5,36.27,48,-30,33,1
1,0.12,10.58,36.27,48,-30,33,1
1,0.13,-12.75,36.27,48,-30,33,1
1,0.12,19.05,36.25,48,-30,33,1
1,0.12,65.77,36.25,48,-30,33,1
1,0.13,48.37,36.25,48,-30,33,1
1,0.12,-271.07,36.25,48,-30,33,1
1,0.13,-2.07,36.25,48,-30,33,1
1,0.12,22.89,36.25,48,-30,33,1
1,0.13,-1.28,36.25,48,-30,33,1
1,0.13,27.55,36.25,48,-30,33,1
1,0.13,8.8,36.25,48,-30,33,1
1,0.13,-15.97,36.25,48,-30,33,1
1,0.12,15.15,36.25,48,-30,33,1
1,0.13,15.08,36.25,48,-30,33,1
1,0.13,1.26,36.23,48,-30,33,1
1,0.13,-9.5,36.23,48,-30,33,1
1,0.13,13.01,36.23,48,-30,33,1
1,0.12,3.21,36.23,48,-30,33,1
1,0.13,-29.8,36.23,48,-30,33,1
1,0.13,15.09,36.23,48,-30,33,1
1,0.13,5.71,36.23,48,-30,33,1
1,0.13,-8.41,36.23,48,-30,34,1
1,0.13,8.41,36.23,48,-30,33,1
1,0.13,11.44,36.23,48,-30,33,1
1,0.13,1.73,36.23,48,-30,33,1
1,0.13,-23.39,36.23,48,-30,33,1
1,0.13,9.08,36.18,48,-30,34,1
1,0.13,0.89,36.18,48,-30,33,1
1,0.13,-12.99,36.18,48,-30,34,1
1,0.13,9.42,36.18,48,-30,34,1
1,0.13,11.03,36.21,48,-30,33,1
1,0.13,-1.59,36.21,48,-30,34,1
1,0.13,-12.14,36.21,47,-30,34,1
1,0.13,10.56,36.21,47,-30,33,1
1,0.13,4.28,36.18,48,-30,34,1
1,0.12,-10.41,36.18,47,-30,33,1
1,0.12,4.79,36.18,48,-30,34,1
1,0.13,-1.87,36.18,48,-30,34,1
1,0.13,-13.32,36.18,48,-30,33,1
1,0.13,9.31,36.18,48,-30,33,1
1,0.13,8.58,36.18,48,-29,34,1
1,0.13,-9.06,36.18,48,-30,34,1
1,0.13,-11.73,36.18,48,-30,33,1
1,0.13,13.42,36.18,48,-30,33,1
1,0.13,2.43,36.18,48,-30,34,1
1,0.13,-23.49,36.18,47,-30,34,1
1,0.13,16.48,36.15,48,-30,34,1
1,0.13,1,36.15,48,-30,33,1
1,0.13,-15.18,36.15,47,-30,34,1
1,0.13,12.76,36.15,47,-30,34,1
1,0.13,9.8,36.16,48,-29,35,1
1,0.13,-13.66,36.16,47,-28,35,1
1,0.13,2.95,36.16,48,-26,38,1
1,0.13,18.9,36.16,45,-22,42,1
1,0.13,11.8,36.15,40,-20,48,1
1,0.13,18.34,36.15,50,-17,57,1
1,0.13,19.02,36.15,40,-3,43,1
1,0.13,2.51,36.15,36,-6,46,1
1,0.13,-62.37,36.13,39,-1,46,1
1,0.13,17.56,36.13,45,4,47,1
1,0.13,84.9,36.13,43,8,45,1
1,0.13,48.18,36.13,42,8,39,1
1,0.12,-124.13,36.15,52,-14,57,1
1,0.12,35.45,36.15,40,-6,52,1
1,0.12,149.81,36.15,14,-12,57,1
1,0.12,-291.19,36.15,14,-3,55,1
1,0.12,-433.05,36.09,24,6,55,1
1,0.12,83.9,36.09,9,7,40,1
1,0.13,330.62,36.09,36,-3,54,1
1,0.12,277.88,36.09,45,-1,51,1
1,0.12,-162.24,36.13,53,-3,46,1
1,0.12,-14.42,36.13,53,0,36,1
1,0.12,-33.37,36.13,60,-1,34,1
1,0.12,-120.02,36.13,59,1,28,1
1,0.12,14.44,36.09,63,3,20,1
1,0.12,33.51,36.09,63,4,20,1
1,0.12,-4.13,36.09,62,4,18,1
1,0.12,-58.27,36.09,64,5,17,1
1,0.12,48.9,36.11,62,6,17,1
1,0.12,23.27,36.11,64,6,18,1
1,0.12,-27.86,36.11,65,6,20,1
1,0.12,32.46,36.11,64,6,18,1
1,0.12,-5.72,36.11,63,6,18,1
1,0.12,-25.35,36.11,63,6,18,1
1,0.12,-26.03,36.11,63,6,17,1
1,0.12,35.86,36.11,63,6,18,1
1,0.12,-2.11,36.09,63,6,18,1
1,0.12,18.79,36.09,64,7,18,1
1,0.12,-2.44,36.09,63,6,18,1
1,0.12,-32.47,36.09,63,7,18,1
1,0.12,12.17,36.09,63,7,18,1
1,0.12,27.27,36.09,63,7,18,1
1,0.12,59.52,36.09,63,7,18,1
1,0.12,-51.36,36.09,63,7,18,1
1,0.12,45.96,36.07,63,7,18,1
1,0.12,24.6,36.07,63,7,18,1
1,0.12,11.73,36.07,64,7,18,1
1,0.12,-0.27,36.07,63,8,19,1
1,0.12,14.65,36.05,62,7,18,1
1,0.12,-28.11,36.05,62,7,18,1
1,0.12,-23,36.05,63,7,18,1
1,0.12,37.84,36.05,63,7,18,1
1,0.12,7.13,36.07,63,8,18,1
1,0.12,19.57,36.07,63,8,18,1
1,0,-0.03,30.15,41,1,50,0
1,0.2,5.06,30.15,41,1,50,0
1,0.29,17.91,30.15,42,2,51,0
1,0.28,79.34,30.15,40,2,47,0
1,0.28,228.25,30.15,44,-3,51,0
1,0.28,-486.47,30.15,44,1,48,0
1,0.28,-4.99,30.15,45,2,48,0
1,0.29,160.14,30.15,46,3,43,0
1,0.29,63.72,30.13,53,3,45,0
1,0.28,35.23,30.13,50,1,44,0
1,0.28,-24.66,30.13,51,1,42,0
1,0.28,17.18,30.13,50,0,44,0
1,0.28,74.24,30.13,53,1,45,0
1,0.28,152.32,30.13,55,0,46,0
1,0.28,63.49,30.13,48,-4,43,0
1,0.29,10.84,30.13,47,-4,46,0
1,0.28,-40.53,30.11,50,-4,41,0
1,0.28,-168.43,30.11,20,-6,52,0
1,0.28,-381.87,30.11,21,-5,63,0
1,0.28,-230.89,30.11,11,-7,61,0
1,0.28,217.35,30.07,6,-2,62,0
1,0.29,220.86,30.07,14,4,48,0
1,0.28,-36.2,30.07,19,-2,58,0
1,0.29,-260.52,30.07,22,11,60,0
1,0.29,56.82,30.11,31,3,54,0
1,0.31,98.52,30.11,43,0,52,0
1,0.31,-126.98,30.11,32,-14,64,0
1,0.31,169.04,30.11,12,-14,65,0
1,0.3,62.23,30.05,8,-9,63,0
1,0.3,-215.53,30.05,17,1,55,0
1,0.29,-253.19,30.05,26,-4,61,0
1,0.29,85.82,30.05,19,0,71,0
1,0.3,168.01,30.09,14,-12,54,0
1,0.29,225.27,30.09,34,-13,50,0
1,0.29,-409.12,30.09,16,-14,46,0
1,0.29,27.07,30.09,31,-11,54,0
1,0.29,235,30.07,39,-11,59,0
1,0.29,193.02,30.07,30,-10,45,0
1,0.29,51.11,30.07,35,-22,66,0
1,0.29,151.87,30.07,38,-10,62,0
1,0.28,-264.82,30.05,-10,6,47,0
1,0.28,282.06,30.05,10,-8,72,0
1,0.29,-111.06,30.05,7,-18,70,0
1,0.29,19.38,30.05,12,-14,59,0
1,0.29,181.98,30.09,7,-12,64,0
1,0.29,-191.35,30.09,6,-9,55,0
1,0.29,-299.49,30.09,9,-10,55,0
1,0.29,244.77,30.09,4,-11,60,0
1,0.29,227.89,30.09,10,-9,68,0
1,0.29,-147.23,30.09,13,-11,68,0
1,0.29,-99.94,30.09,11,-12,62,0
1,0.29,98.01,30.09,12,-9,66,0
1,0.29,-28.53,30.09,9,-8,64,0
1,0.29,-83.68,30.09,10,-12,66,0
1,0.29,24.22,30.09,9,-9,64,0
1,0.29,5.73,30.09,4,-10,63,0
1,0.29,-100.27,30.11,4,-11,63,0
1,0.29,20.02,30.11,6,-11,63,0
1,0.29,38.94,30.11,5,-11,62,0
1,0.29,-0.9,30.11,6,-12,63,0
1,0.29,-16.26,30.09,4,-11,62,0
1,0.29,-19.37,30.09,7,-12,61,0
1,0.29,-7.6,30.09,8,-14,62,0
1,0.29,-13.66,30.09,7,-14,63,0
1,0.29,40.34,30.09,5,-14,64,0
1,0.29,7.09,30.09,7,-12,63,0
1,0.29,-29.66,30.09,7,-13,62,0
1,0.29,-58.95,30.09,8,-13,63,0
1,0.29,-26.34,30.11,8,-13,62,0
1,0.29,53.19,30.11,9,-14,64,0
1,0.29,47.29,30.11,9,-13,61,0
1,0.29,24.09,30.11,8,-14,62,0
1,0.29,-2.43,30.11,9,-14,62,0
1,0.29,30.45,30.11,9,-14,62,0
1,0.29,-108.36,30.11,11,-13,61,0
1,0.3,-13.42,30.11,11,-14,63,0
1,0.29,44.79,30.11,10,-15,62,0
1,0.29,-13.71,30.11,11,-14,65,0
1,0.3,16.24,30.11,11,-14,62,0
1,0.29,-6.91,30.11,11,-14,62,0
1,0.3,27.94,30.11,12,-14,63,0
1,0.29,39.47,30.11,12,-14,62,0
1,0.3,-38.52,30.11,11,-13,62,0
1,0.29,-41.8,30.11,12,-13,62,0
1,0.3,-13.47,30.15,9,-14,59,0
1,0.29,24.79,30.15,11,-14,63,0
1,0.3,20.69,30.15,12,-14,62,0
1,0.29,-33.94,30.15,12,-14,62,0
1,0.29,-48.65,30.13,13,-14,62,0
1,0.3,28.05,30.13,13,-14,62,0
1,0.3,21.91,30.13,14,-14,62,0
1,0.3,-14.78,30.13,14,-14,62,0
1,0.3,31.89,30.13,14,-13,62,0
1,0.3,9.21,30.13,13,-13,62,0
1,0.3,3.76,30.13,14,-14,62,0
1,0.3,-5.54,30.13,14,-14,62,0
1,0.3,-8.68,30.15,14,-14,62,0
1,0.3,9.61,30.15,14,-14,62,0
1,0.3,-13.91,30.15,14,-14,62,0
1,0.3,-20.69,30.15,14,-14,62,0
1,0.3,5.88,30.15,13,-14,62,0
1,0.3,-10.79,30.15,14,-14,62,0
1,0.3,-8,30.15,14,-14,62,0
1,0.3,-3.53,30.15,14,-14,62,0
1,0.3,5.19,30.15,14,-14,62,0
1,0.3,5.52,30.15,14,-14,62,0
1,0.3,9.35,30.15,14,-14,61,0
1,0.3,-10.63,30.15,14,-14,62,0
1,0.3,-7.5,30.17,14,-14,61,0
1,0.3,19.68,30.17,14,-14,62,0
1,0.3,-12.03,30.17,14,-14,62,0
1,0.3,-7.96,30.17,13,-14,61,0
1,0.3,6.98,30.15,13,-14,62,0
1,0.3,-7.74,30.15,13,-14,62,0
1,0.3,-6.05,30.15,13,-14,62,0
1,0.3,-1.11,30.15,13,-14,62,0
1,0.3,-20.4,30.17,12,-14,62,0
1,0.3,18.38,30.17,12,-13,61,0
1,0,-0.03,24.89,28,53,22,0
1,0.12,5.06,24.89,28,53,22,0
1,0.17,17.91,24.89,28,52,23,0
1,0.17,79.34,24.89,28,52,23,0
1,0.18,228.25,24.89,28,53,22,0
1,0.18,-486.5,24.89,28,53,23,0
1,0.18,-5.9,24.89,28,52,23,0
1,0.18,156.15,24.89,26,54,21,0
1,0.18,46.78,24.87,23,55,21,0
1,0.18,4.05,24.87,24,55,22,0
1,0.18,0.21,24.87,23,55,20,0
1,0.18,0.96,24.87,24,55,22,0
1,0.18,4.33,24.89,25,55,23,0
1,0.18,16.33,24.89,23,54,23,0
1,0.18,7.02,24.89,23,55,23,0
1,0.18,-11.45,24.89,23,56,21,0
1,0.18,18.36,24.89,22,55,20,0
1,0.18,65.36,24.89,22,55,21,0
1,0.18,0.87,24.89,24,56,22,0
1,0.18,-183.66,24.89,23,55,22,0
1,0.18,11.69,24.87,22,56,19,0
1,0.18,40.43,24.87,23,55,22,0
1,0.18,17.68,24.87,22,55,21,0
1,0.18,1.36,24.87,23,55,22,0
1,0.18,7.98,24.89,23,55,22,0
1,0.18,-0.56,24.89,22,55,21,0
1,0.18,-3.62,24.89,22,55,21,0
1,0.18,13.18,24.89,22,56,21,0
1,0.18,2.61,24.89,22,56,22,0
1,0.18,-11.18,24.89,23,56,21,0
1,0.18,4.74,24.89,23,55,21,0
1,0.18,4.04,24.89,23,55,21,0
1,0.18,-11.68,24.89,23,55,21,0
1,0.18,5.17,24.89,23,55,22,0
1,0.18,9.37,24.89,22,55,22,0
1,0.18,5.75,24.89,23,55,21,0
1,0.18,20.35,24.89,23,55,22,0
1,0.17,-2.21,24.89,23,55,22,0
1,0.18,-24.99,24.89,23,55,24,0
1,0.18,-31.51,24.89,23,55,23,0
1,0.18,-68.14,24.89,22,55,21,0
1,0.18,-4.27,24.89,23,55,23,0
1,0.18,121.41,24.89,23,55,22,0
1,0.18,63.15,24.89,22,55,22,0
1,0.18,-22.1,24.89,23,55,21,0
1,0.17,13.86,24.89,23,55,21,0
1,0.18,7.25,24.89,23,55,21,0
1,0.18,12.65,24.89,23,56,20,0
1,0.18,-31.06,24.89,22,56,21,0
1,0.18,-50.35,24.89,22,56,21,0
1,0.18,-8.18,24.89,22,56,20,0
1,0.18,-2.29,24.89,22,56,21,0
1,0.18,7.94,24.87,21,56,19,0
1,0.18,7.79,24.87,21,56,20,0
1,0.18,-2.34,24.87,22,56,20,0
1,0.18,6.3,24.87,22,55,20,0
1,0.18,-5.33,24.89,21,56,20,0
1,0.17,-7.99,24.89,22,56,21,0
1,0.18,7.75,24.89,23,55,21,0
1,0.17,7.17,24.89,22,55,19,0
1,0.18,-8.12,24.83,22,55,21,0
1,0.17,11.34,24.83,23,56,20,0
1,0.17,6.19,24.83,22,55,21,0
1,0.17,-9.75,24.83,23,56,20,0
1,0.17,7.53,24.83,22,56,20,0
1,0.17,5.55,24.83,22,56,20,0
1,0.18,-9.55,24.83,21,56,20,0
1,0.17,3.97,24.83,21,56,20,0
1,0.18,4.23,24.83,21,56,20,0
1,0.17,-6.05,24.83,21,56,20,0
1,0.18,6.01,24.83,21,56,20,0
1,0.17,4.13,24.83,21,57,20,0
1,0.17,-11.9,24.83,21,56,20,0
1,0.17,5.71,24.83,20,56,20,0
1,0.17,2.42,24.83,21,56,20,0
1,0.18,-10.52,24.83,20,56,20,0
1,0.17,6.05,24.83,22,57,21,0
1,0.17,-1.55,24.83,21,57,19,0
1,0.17,-12.8,24.83,20,56,20,0
1,0.17,10.94,24.83,21,57,20,0
1,0.17,10.7,24.83,21,57,20,0
1,0.17,-10.97,24.83,21,56,20,0
1,0.17,3.86,24.83,21,56,20,0
1,0.17,3.43,24.83,21,56,19,0
1,0.17,-7.88,24.83,21,56,20,0
1,0.17,1.17,24.83,20,56,20,0
1,0.17,4.36,24.83,20,57,19,0
1,0.17,-5.98,24.83,21,56,20,0
1,0.17,1.16,24.83,21,57,19,0
1,0.17,4.97,24.83,21,57,20,0
1,0.17,-0.99,24.83,20,56,19,0
1,0.17,-3,24.83,21,57,19,0
1,0.17,5.93,24.83,21,56,20,0
1,0.17,0.89,24.83,20,56,19,0
1,0.17,-6.53,24.83,21,57,20,0
1,0.17,7.94,24.83,21,56,20,0
1,0.17,2.59,24.83,21,56,20,0
1,0.17,-11.19,24.83,20,56,20,0
1,0.17,6.18,24.83,21,56,20,0
1,0.17,3.67,24.83,20,57,20,0
1,0.17,-8.62,24.81,21,57,20,0
1,0.17,1.42,24.81,21,57,20,0
1,0.17,0.49,24.81,21,56,20,0
1,0.17,-8,24.81,20,56,20,0
1,0.17,2.54,24.79,21,57,20,0
1,0.17,0.49,24.79,20,56,19,0
1,0.17,-5.51,24.79,21,56,20,0
1,0.17,6.91,24.79,21,57,21,0
1,0.17,10.1,24.81,20,56,20,0
1,0.17,3.31,24.81,20,57,19,0
1,0.17,0.14,24.81,21,57,22,0
1,0.17,-13.85,24.81,20,57,20,0
1,0.17,-14.71,24.79,20,56,20,0
1,0.17,-2.83,24.79,20,57,20,0
1,0.17,-9.68,24.79,20,56,20,0
1,0.17,-7.81,24.79,20,57,20,0
1,0.17,9.49,24.81,20,57,20,0
1,0.17,6.22,24.81,20,56,20,0
1,0,-0.03,30.83,-12,41,56,0
1,0.08,5.06,30.83,-27,46,34,0
1,0.13,17.91,30.83,-28,49,30,0
1,0.12,79.34,30.83,-18,54,37,0
1,0.12,228.25,30.83,-41,47,6,0
1,0.13,-486.5,30.83,-30,50,17,0
1,0.13,-5.9,30.83,-28,46,38,0
1,0.13,156.15,30.83,-23,46,38,0
1,0.13,46.78,30.81,-27,45,38,0
1,0.13,4.05,30.81,-7,62,11,0
1,0.13,0.22,30.81,-38,46,16,0
1,0.13,0.76,30.81,-30,45,33,0
1,0.13,3.55,30.81,-21,44,40,0
1,0.13,12.74,30.81,-3,45,44,0
1,0.13,10.43,30.81,12,46,40,0
1,0.13,-4.53,30.81,19,49,38,0
1,0.13,-13.88,30.79,17,57,23,0
1,0.13,-1.83,30.79,6,53,32,0
1,0.12,149.25,30.79,-7,51,40,0
1,0.13,-314.24,30.79,1,52,36,0
1,0.13,-48.24,30.75,6,52,34,0
1,0.13,246.75,30.75,7,52,34,0
1,0.13,96.5,30.75,6,53,28,0
1,0.13,-220.57,30.75,12,54,31,0
1,0.13,-51.64,30.75,7,53,36,0
1,0.13,-47.49,30.75,6,54,32,0
1,0.13,50.18,30.75,4,53,31,0
1,0.13,42.3,30.75,5,56,31,0
1,0.13,146.92,30.75,-6,53,35,0
1,0.13,-197.78,30.75,-5,52,35,0
1,0.13,-17.14,30.75,3,54,32,0
1,0.13,-69.66,30.75,0,53,34,0
1,0.13,293.94,30.77,13,53,29,0
1,0.13,55.21,30.77,18,50,30,0
1,0.13,-160.75,30.77,23,50,26,0
1,0.13,35.73,30.77,26,50,32,0
1,0.13,68.11,30.75,16,55,16,0
1,0.12,-0.25,30.75,17,52,29,0
1,0.12,58.78,30.75,26,51,31,0
1,0.13,22.26,30.75,20,49,34,0
1,0.13,-45.76,30.77,21,48,37,0
1,0.13,-19.03,30.77,30,47,33,0
1,0.13,103.78,30.77,31,46,32,0
1,0.13,203.65,30.77,39,46,24,0
1,0.13,117.28,30.77,35,46,26,0
1,0.13,-3.82,30.77,35,45,29,0
1,0.13,-86.55,30.77,34,45,29,0
1,0.13,-521.96,30.77,32,46,29,0
1,0.14,-192.47,30.79,36,45,29,0
1,0.13,106.73,30.79,35,45,29,0
1,0.13,91.23,30.79,35,45,29,0
1,0.13,-70.29,30.79,36,45,30,0
1,0.13,289.85,30.81,34,45,28,0
1,0.13,-24.46,30.81,35,46,28,0
1,0.13,-231.86,30.81,34,45,30,0
1,0.13,126.82,30.81,34,46,30,0
1,0.13,-39.75,30.79,33,46,30,0
1,0.13,-4.05,30.79,34,44,32,0
1,0.13,122.62,30.79,33,45,32,0
1,0.13,101.23,30.79,35,46,30,0
1,0.13,196.12,30.81,30,46,31,0
1,0.13,-60.04,30.81,28,46,33,0
1,0.13,34.32,30.81,29,47,33,0
1,0.13,-78.56,30.81,28,46,33,0
1,0.13,-146.2,30.81,29,46,34,0
1,0.14,-22.7,30.81,27,46,35,0
1,0.13,-26.79,30.81,27,46,35,0
1,0.13,-556.44,30.81,27,46,35,0
1,0.13,-16.34,30.83,27,47,34,0
1,0.14,322.74,30.83,25,47,34,0
1,0.14,296.8,30.83,26,47,36,0
1,0.13,-39.45,30.83,25,49,32,0
1,0.13,-128.84,30.83,25,50,36,0
1,0.14,30.52,30.83,19,50,33,0
1,0.13,155.93,30.83,18,51,34,0
1,0.13,-164.22,30.83,14,51,33,0
1,0.13,-466.33,30.83,14,48,39,0
1,0.13,276.38,30.83,17,46,41,0
1,0.13,143.98,30.83,16,45,40,0
1,0.13,64.69,30.83,18,43,43,0
1,0.13,123.65,30.83,19,42,44,0
1,0.13,412.14,30.83,20,41,43,0
1,0.14,195.77,30.83,25,40,45,0
1,0.13,-62.67,30.83,21,40,45,0
1,0.14,6.32,30.81,19,43,40,0
1,0.14,95.36,30.81,25,45,44,0
1,0.14,-116.43,30.81,21,48,34,0
1,0.13,-47.78,30.81,23,41,44,0
1,0.13,-256.32,30.81,27,42,40,0
1,0.13,-1508.82,30.81,33,42,38,0
1,0.13,380.24,30.81,29,41,36,0
1,0.13,202.38,30.81,30,39,39,0
1,0.13,74.9,30.83,32,38,41,0
1,0.13,36.78,30.83,34,37,39,0
1,0.13,170.34,30.83,37,36,40,0
1,0.13,380.76,30.83,33,39,36,0
1,0.13,49.39,30.81,36,36,38,0
1,0.13,-88.22,30.81,38,35,40,0
1,0.13,-58.25,30.81,36,36,36,0
1,0.13,-23.64,30.81,35,37,37,0
1,0.13,2.09,30.81,37,36,40,0
1,0.13,2.18,30.81,35,42,32,0
1,0.14,-27.31,30.81,32,41,38,0
1,0.13,-24.91,30.81,33,42,36,0
1,0.13,20.03,30.81,30,42,37,0
1,0.13,-29.18,30.81,30,43,33,0
1,0.13,6.53,30.81,31,44,34,0
1,0.13,-88.85,30.81,32,44,34,0
1,0.13,6.96,30.77,34,44,32,0
1,0.13,1.47,30.77,39,45,28,0
1,0.13,16.57,30.77,36,42,33,0
1,0.13,-5.29,30.77,41,49,14,0
1,0.13,11.85,30.79,20,52,11,0
1,0.13,-13.54,30.79,24,49,28,0
1,0.13,20.54,30.79,26,47,31,0
1,0.13,-5.09,30.79,29,47,30,0
1,0.13,67.97,30.79,33,48,24,0
1,0.13,137.38,30.79,41,47,16,0
1,0,-0.03,30.13,-9,-6,63,1
1,0.05,5.06,30.13,-6,-6,65,1
1,0.08,17.91,30.13,-5,-6,65,1
1,0.08,79.34,30.13,-5,-6,64,1
1,0.08,228.25,30.13,-5,-6,64,1
1,0.08,-486.5,30.13,-4,-6,64,1
1,0.08,-5.9,30.13,-4,-6,64,1
1,0.08,156.15,30.13,-4,-6,64,1
1,0.08,46.78,30.13,-3,-6,64,1
1,0.09,4.05,30.13,-4,-5,64,1
1,0.08,0.21,30.13,-1,-7,64,1
1,0.09,0.97,30.13,-2,-6,63,1
1,0.08,4.36,30.15,21,-8,59,1
1,0.09,16.39,30.15,8,-10,60,1
1,0.08,7.32,30.15,15,-15,61,1
1,0.08,-13.25,30.15,10,-8,63,1
1,0.08,16.75,30.15,9,-8,65,1
1,0.08,82.44,30.15,7,-7,64,1
1,0.09,76.04,30.15,7,-7,64,1
1,0.08,-259.49,30.15,7,-7,64,1
1,0.08,-17.27,30.15,7,-7,64,1
1,0.09,32.18,30.15,7,-7,64,1
1,0.08,25.77,30.15,7,-7,64,1
1,0.09,8.78,30.15,7,-8,63,1
1,0.09,7.3,30.15,10,-7,63,1
1,0.08,4.26,30.15,11,-7,64,1
1,0.09,0.63,30.15,7,-4,63,1
1,0.09,41.29,30.15,11,-7,63,1
1,0.08,-49.16,30.13,6,-1,64,1
1,0.09,14.63,30.13,4,-4,65,1
1,0.08,4.04,30.13,9,-6,65,1
1,0.08,10.47,30.13,8,-7,63,1
1,0.09,-16.08,30.15,7,-7,64,1
1,0.08,5.53,30.15,7,-7,64,1
1,0.09,-6.32,30.15,8,-7,64,1
1,0.08,-28.57,30.15,7,-6,64,1
1,0.08,14.78,30.15,7,-7,64,1
1,0.09,13.07,30.15,7,-7,64,1
1,0.08,10.55,30.15,7,-7,64,1
1,0.09,1.63,30.15,7,-7,64,1
1,0.08,2.03,30.13,0,-10,63,1
1,0.08,-2.69,30.13,6,-9,64,1
1,0.08,-4.45,30.13,1,-7,66,1
1,0.08,1.07,30.13,6,-6,68,1
1,0.08,22.14,30.11,3,-7,65,1
1,0.09,-59.99,30.11,2,-6,65,1
1,0.08,-53.27,30.11,2,-7,64,1
1,0.09,98,30.11,1,-7,64,1
1,0.09,64.44,30.13,2,-6,65,1
1,0.09,-33.58,30.13,0,-7,64,1
1,0.08,8.87,30.13,0,-6,65,1
1,0.08,-8.77,30.13,-1,-6,64,1
1,0.09,8.52,30.13,-1,-7,62,1
1,0.09,-19.44,30.13,2,-6,65,1
1,0.09,0.11,30.13,2,-7,63,1
1,0.09,10.1,30.13,6,-7,64,1
1,0.08,-10.46,30.13,3,-7,64,1
1,0.09,-5.49,30.13,4,-7,64,1
1,0.09,6.89,30.13,4,-7,64,1
1,0.09,-11.56,30.13,3,-7,64,1
1,0.09,-19.12,30.11,3,-7,64,1
1,0.08,4.63,30.11,3,-7,64,1
1,0.09,-0.53,30.11,0,-7,64,1
1,0.08,7.64,30.11,-1,-7,64,1
1,0.08,9.79,30.13,-2,-7,64,1
1,0.09,18.09,30.13,-2,-7,64,1
1,0.08,5.89,30.13,-2,-7,64,1
1,0.08,-26.9,30.13,-2,-7,64,1
1,0.09,-6.15,30.09,-2,-7,64,1
1,0.08,-8.95,30.09,-2,-7,64,1
1,0.09,1.73,30.09,-2,-7,64,1
1,0.09,-5.36,30.09,-2,-7,64,1
1,0.09,8.56,30.07,-2,-7,65,1
1,0.09,-5.74,30.07,-2,-7,64,1
1,0.09,5.92,30.07,-3,-7,64,1
1,0.09,-0.25,30.07,-2,-7,64,1
1,0.09,-0.09,30.09,-3,-7,64,1
1,0.09,6.63,30.09,-3,-7,64,1
1,0.09,-18.83,30.09,-3,-7,64,1
1,0.09,8.8,30.09,-3,-7,64,1
1,0.09,-4.04,30.09,-3,-7,64,1
1,0.09,1.19,30.09,-3,-7,64,1
1,0.09,6.61,30.09,-3,-7,64,1
1,0.09,-16.06,30.09,-3,-7,64,1
1,0.09,12.42,30.07,-3,-7,65,1
1,0.09,6.07,30.07,-2,-7,64,1
1,0.09,-13.32,30.07,-3,-7,64,1
1,0.09,11.88,30.07,-2,-7,64,1
1,0.09,-0.36,30.05,-3,-7,64,1
1,0.09,6.07,30.05,-3,-7,64,1
1,0.09,2.73,30.05,-3,-7,64,1
1,0.09,-18.21,30.05,-3,-7,64,1
1,0.09,19.35,30.05,-3,-7,64,1
1,0.09,-1.44,30.05,-3,-7,64,1
1,0.09,6.25,30.05,-3,-7,64,1
1,0.09,6.24,30.05,-2,-7,64,1
1,0.09,-15.44,30.05,-2,-7,64,1
1,0.09,13.69,30.05,-2,-7,64,1
1,0.09,-3.58,30.05,-3,-7,64,1
1,0.09,3.32,30.05,-3,-7,64,1
1,0.09,3.15,30.03,-3,-7,64,1
1,0.09,-15.95,30.03,-3,-7,64,1
1,0.09,9.83,30.03,-3,-7,64,1
1,0.09,-5.76,30.03,-3,-7,64,1
1,0.09,4.41,30.03,-3,-7,64,1
1,0.09,6.05,30.03,-4,-7,64,1
1,0.09,-14.1,30.03,-3,-7,65,1
1,0.09,6.08,30.03,-3,-7,65,1
1,0.09,-9.58,29.99,-4,-7,64,1
1,0.09,2.43,29.99,-5,-7,64,1
1,0.09,3.65,29.99,-5,-7,64,1
1,0.09,-12.46,29.99,-6,-7,64,1
1,0.09,8.55,30.01,-5,-6,65,1
1,0.09,-7.96,30.01,-6,-7,64,1
1,0.09,6.03,30.01,-6,-7,64,1
1,0.09,0.99,30.01,-6,-7,64,1
1,0.09,-4.4,30.01,-6,-7,64,1
1,0.09,1.19,30.01,-6,-7,64,1
1,0,-0.03,31.87,6,-4,60,1
1,0.17,5.06,31.87,4,-3,64,1
1,0.26,17.91,31.87,6,-4,63,1
1,0.25,79.34,31.87,5,-3,64,1
1,0.25,228.25,31.87,6,-3,63,1
1,0.25,-486.5,31.87,6,-3,64,1
1,0.25,-5.9,31.87,6,-4,64,1
1,0.25,156.15,31.87,6,-3,65,1
1,0.25,46.78,31.83,6,-4,64,1
1,0.25,4.05,31.83,5,-4,64,1
1,0.25,0.15,31.83,6,-5,64,1
1,0.25,0.79,31.83,6,-3,64,1
1,0.25,3.43,31.83,6,-3,64,1
1,0.25,13.76,31.83,6,-3,64,1
1,0.25,16.22,31.83,6,-3,64,1
1,0.26,-16.23,31.83,7,-4,64,1
1,0.26,11.1,31.83,9,-3,64,1
1,0.25,42.58,31.83,5,-4,60,1
1,0.25,-11.75,31.83,16,-4,66,1
1,0.26,-96.48,31.83,8,-1,66,1
1,0.26,43.93,31.83,5,-2,60,1
1,0.26,1.12,31.83,2,-1,64,1
1,0.26,63.12,31.83,2,-2,66,1
1,0.26,-65.35,31.83,1,-3,65,1
1,0.26,126.46,31.81,-1,-1,62,1
1,0.26,-47.67,31.81,4,0,72,1
1,0.26,53.35,31.81,3,-2,65,1
1,0.26,-9.59,31.81,4,-1,65,1
1,0.26,22.68,31.81,7,-3,67,1
1,0.26,-66.43,31.81,6,-2,65,1
1,0.26,41.11,31.81,6,-2,63,1
1,0.26,-30.37,31.81,5,-2,63,1
1,0.25,-14.4,31.79,4,-4,63,1
1,0.25,-1.49,31.79,3,-3,71,1
1,0.25,5.02,31.79,4,-2,65,1
1,0.25,0.65,31.79,6,-1,63,1
1,0.26,-22.08,31.79,0,0,68,1
1,0.25,36.8,31.79,4,-3,64,1
1,0.25,-28.63,31.79,4,0,59,1
1,0.26,-98.57,31.79,8,-4,65,1
1,0.26,25.69,31.77,4,-1,64,1
1,0.26,40.17,31.77,5,-4,66,1
1,0.25,-125.58,31.77,7,-3,69,1
1,0.25,26.87,31.77,10,-2,66,1
1,0.25,75.49,31.77,9,-3,62,1
1,0.25,12.45,31.77,7,-3,66,1
1,0.25,-49.11,31.77,8,-3,64,1
1,0.25,4.28,31.77,7,-3,66,1
1,0.25,-118.98,31.75,6,-3,65,1
1,0.25,-131.7,31.75,5,-4,62,1
1,0.25,139.25,31.75,6,-3,65,1
1,0.25,-3.13,31.75,8,-1,58,1
1,0.25,-37.14,31.75,5,-3,64,1
1,0.26,131.27,31.75,7,-4,67,1
1,0.25,-22.17,31.75,2,-3,69,1
1,0.26,1.54,31.75,5,-3,64,1
1,0.25,220.6,31.73,4,-3,64,1
1,0.25,-3.34,31.73,5,-2,64,1
1,0.26,-131.44,31.73,4,-3,63,1
1,0.25,-2.14,31.73,5,-4,64,1
1,0.26,-31.84,31.73,6,-3,67,1
1,0.25,-62.2,31.73,8,-3,59,1
1,0.26,-30.61,31.73,1,-1,62,1
1,0.26,-12.8,31.73,2,-3,65,1
1,0.26,105.81,31.73,5,-2,64,1
1,0.25,1.9,31.73,3,-3,63,1
1,0.26,-2.23,31.73,6,-3,65,1
1,0.26,-66.32,31.73,6,-3,64,1
1,0.26,65.82,31.71,5,-3,63,1
1,0.26,0.91,31.71,5,-3,64,1
1,0.26,-6.2,31.71,5,-3,64,1
1,0.26,-1.67,31.71,5,-2,64,1
1,0.26,12.53,31.71,5,-3,65,1
1,0.26,-8.19,31.71,4,-3,65,1
1,0.26,-7.19,31.71,6,-2,65,1
1,0.26,21.3,31.71,6,-2,63,1
1,0.26,-0.27,31.71,6,-4,63,1
1,0.26,-19.18,31.71,5,-3,63,1
1,0.26,12.37,31.71,6,-2,65,1
1,0.26,27.59,31.71,7,-3,65,1
1,0.26,-19.65,31.71,8,-3,64,1
1,0.26,18.6,31.71,9,-4,68,1
1,0.27,30.04,31.71,6,-4,63,1
1,0.26,-48.49,31.71,8,-4,63,1
1,0.26,9.04,31.71,9,-3,65,1
1,0.26,1.85,31.71,9,-3,64,1
1,0.26,-95.32,31.71,8,-3,64,1
1,0.26,-14.76,31.71,8,-3,63,1
1,0.26,-7.48,31.71,8,-3,63,1
1,0.26,-22.12,31.71,9,-3,67,1
1,0.26,28.76,31.71,6,-3,65,1
1,0.26,17.09,31.71,7,-3,63,1
1,0.26,-32.07,31.71,6,-3,64,1
1,0.26,45.48,31.71,6,-3,64,1
1,0.26,10.79,31.71,6,-3,64,1
1,0.26,-86.47,31.71,6,-3,64,1
1,0.26,17.56,31.69,6,-2,63,1
1,0.26,10.4,31.69,6,-2,64,1
1,0.26,-37.5,31.69,6,-3,64,1
1,0.26,30.37,31.69,5,-3,62,1
1,0.25,10.89,31.67,3,-4,64,1
1,0.26,-15.49,31.67,4,-4,64,1
1,0.26,41.29,31.67,5,-3,64,1
1,0.25,4.25,31.67,5,-3,64,1
1,0.26,-64.98,31.69,4,-2,64,1
1,0.25,26.99,31.69,5,-3,64,1
1,0.26,-16.91,31.69,4,-3,64,1
1,0.26,-1.17,31.69,4,-3,64,1
1,0.26,25.11,31.65,4,-3,64,1
1,0.26,-17.91,31.65,4,-3,64,1
1,0.26,28.08,31.65,4,-3,64,1
1,0.26,22.38,31.65,5,-3,64,1
1,0.25,-25.19,31.67,4,-3,64,1
1,0.26,28.91,31.67,4,-3,64,1
1,0.26,24.6,31.67,5,-3,64,1
1,0.25,-49.67,31.67,3,-4,64,1
1,0.25,29.23,31.67,6,-4,66,1
1,0.26,18.17,31.67,5,-5,64,1
1,0,-0.03,32.61,-1,33,57,0
1,0.02,5.06,32.61,3,41,52,0
1,0.05,17.91,32.61,-5,35,51,0
1,0.05,79.34,32.61,-7,29,46,0
1,0.05,228.25,32.61,-11,39,55,0
1,0.05,-486.5,32.61,-11,42,47,0
1,0.05,-5.9,32.61,-12,35,53,0
1,0.05,156.15,32.61,-8,36,51,0
1,0.05,46.78,32.59,-12,41,50,0
1,0.05,4.05,32.59,-11,44,50,0
1,0.05,0.13,32.59,-5,33,51,0
1,0.05,0.72,32.59,-12,31,56,0
1,0.05,3.06,32.55,-19,35,48,0
1,0.05,12.51,32.55,-16,49,44,0
1,0.05,18.39,32.55,-9,41,50,0
1,0.05,-16.55,32.55,-16,24,55,0
1,0.05,16.39,32.5,-23,31,51,0
1,0.05,77.85,32.5,-13,41,46,0
1,0.05,145.77,32.5,-13,50,45,0
1,0.05,-90.55,32.5,-10,43,49,0
1,0.06,-230.57,32.49,-17,44,44,0
1,0.05,-2.17,32.49,-17,36,55,0
1,0.05,9.02,32.49,-20,42,44,0
1,0.05,-33.21,32.49,-17,40,60,0
1,0.05,38.33,32.47,-20,56,33,0
1,0.06,-41.31,32.47,-32,45,3,0
1,0.06,23.52,32.47,-42,42,-14,0
1,0.05,-67.15,32.47,-38,52,-11,0
1,0.06,78.59,32.47,-35,58,-14,0
1,0.05,-57.82,32.47,-18,61,6,0
1,0.06,-65.57,32.47,-8,60,8,0
1,0.05,-50.27,32.47,-2,59,26,0
1,0.06,-19.24,32.45,7,58,25,0
1,0.06,-56.35,32.45,4,54,27,0
1,0.05,-32.92,32.45,5,44,39,0
1,0.05,74.37,32.45,21,57,39,0
1,0.05,33.78,32.47,10,52,28,0
1,0.05,28.71,32.47,24,57,31,0
1,0.06,-48.47,32.47,10,49,33,0
1,0.05,3.54,32.47,6,51,30,0
1,0.05,54.4,32.43,30,52,50,0
1,0.05,2,32.43,10,52,25,0
1,0.05,55.88,32.43,30,54,28,0
1,0.05,-58.55,32.43,22,44,26,0
1,0.05,-35.03,32.41,-11,43,36,0
1,0.05,158.86,32.41,13,51,25,0
1,0.05,-102.93,32.41,20,54,24,0
1,0.05,10.22,32.41,32,60,20,0
1,0.05,-53.22,32.41,23,59,16,0
1,0.05,165.36,32.41,35,58,15,0
1,0.05,105.21,32.41,27,55,18,0
1,0.05,-109.62,32.41,28,56,15,0
1,0.05,5.98,32.39,42,47,18,0
1,0.05,-45.59,32.39,36,49,13,0
1,0.05,28.93,32.39,33,41,33,0
1,0.05,11.48,32.39,28,43,31,0
1,0.05,8.92,32.39,34,58,29,0
1,0.05,-1.07,32.39,23,42,31,0
1,0.05,-38.88,32.39,21,66,39,0
1,0.05,42.22,32.39,4,54,20,0
1,0.05,67.53,32.39,-48,53,-10,0
1,0.06,182.4,32.39,-8,61,20,0
1,0.05,34.73,32.39,2,54,0,0
1,0.05,-468.33,32.39,7,70,-17,0
1,0.05,34.17,32.31,19,50,-46,0
1,0.05,-734.29,32.31,16,47,-37,0
1,0.05,154.41,32.31,32,38,-46,0
1,0.05,312.33,32.31,28,49,-50,0
1,0.05,89.26,32.29,2,49,-3,0
1,0.05,-131.25,32.29,12,56,18,0
1,0.05,-47.93,32.29,6,49,37,0
1,0.05,8.74,32.29,4,46,31,0
1,0.05,4.07,32.25,4,49,36,0
1,0.06,-62.6,32.25,8,48,40,0
1,0.05,79.52,32.25,30,32,72,0
1,0.05,17.42,32.25,34,54,50,0
1,0.05,2.33,32.29,40,13,18,0
1,0.03,-148.24,32.29,72,45,-11,0
1,0.02,38.55,32.29,58,31,8,0
1,0.03,-47.13,32.29,53,34,-4,0
1,0.03,414.75,32.27,44,35,-25,0
1,0.03,-120.32,32.27,24,19,-49,0
1,0.05,54.91,32.27,45,46,-64,0
1,0.04,-265.37,32.27,37,32,-49,0
1,0.04,-117.41,32.29,66,32,3,0
1,0.04,346.63,32.29,63,33,4,0
1,0.03,103.98,32.29,57,26,1,0
1,0.02,-37.02,32.29,33,28,-5,0
1,0.03,25.4,32.25,52,35,7,0
1,0.03,386.82,32.25,50,30,-4,0
1,0.03,-91.74,32.25,51,33,-37,0
1,0.03,-552.94,32.25,45,33,-11,0
1,0.03,-821.6,32.29,47,34,23,0
1,0.04,646.21,32.29,55,39,-3,0
1,0.03,-71.5,32.29,53,40,1,0
1,0.02,-61.12,32.29,53,38,-4,0
1,0.03,-77.38,32.31,53,31,-8,0
1,0.03,-80.17,32.31,50,27,-26,0
1,0.04,188.31,32.31,49,29,-43,0
1,0.04,769.98,32.31,38,29,-37,0
1,0.03,680.16,32.33,30,40,-38,0
1,0.03,-814.92,32.33,54,48,3,0
1,0.03,-462.72,32.33,48,37,8,0
1,0.03,-258.32,32.33,49,29,4,0
1,0.02,256.58,32.33,57,46,-9,0
1,0.02,513.13,32.33,55,30,-11,0
1,0.02,224.42,32.33,57,34,-6,0
1,0.02,-16.36,32.33,46,38,-9,0
1,0.02,-314.92,32.31,47,47,-32,0
1,0.02,-249.32,32.31,33,39,-37,0
1,0.02,-387.08,32.31,30,38,-59,0
1,0.02,272.59,32.31,26,34,-62,0
1,0.03,382.75,32.33,51,33,11,0
1,0.03,-311.71,32.33,29,49,18,0
1,0.04,-385.79,32.33,41,53,14,0
1,0.04,-14.78,32.33,36,50,15,0
1,0.04,270.9,32.23,32,51,12,0
1,0.04,-119.19,32.23,35,49,16,0
1,0,-0.03,30.33,51,-2,40,0
1,0.03,5.06,30.33,51,-5,40,0
1,0.06,17.91,30.33,50,-3,40,0
1,0.06,79.34,30.33,51,-3,40,0
1,0.06,228.25,30.33,48,-2,39,0
1,0.06,-486.5,30.33,52,12,38,0
1,0.06,-5.82,30.33,31,8,50,0
1,0.06,157.32,30.33,44,-3,48,0
1,0.06,52.06,30.31,53,-1,60,0
1,0.06,25.24,30.31,1,-47,33,0
1,0.06,23.83,30.31,-1,-59,38,0
1,0.06,-23.28,30.31,-15,-56,26,0
1,0.06,5.09,30.21,0,-46,39,0
1,0.06,47.68,30.21,-9,-52,31,0
1,0.06,151.54,30.21,-9,-52,43,0
1,0.07,39.64,30.21,-9,-56,26,0
1,0.06,-17.14,30.25,-11,-56,30,0
1,0.06,-32.03,30.25,-13,-56,30,0
1,0.06,-332.28,30.25,-16,-54,33,0
1,0.06,87.29,30.25,-14,-55,35,0
1,0.06,-59.97,30.27,-13,-54,34,0
1,0.06,57.02,30.27,-14,-54,34,0
1,0.06,20.9,30.27,-13,-55,34,0
1,0.06,-2.89,30.27,-13,-54,34,0
1,0.06,-31.31,30.25,-13,-54,34,0
1,0.06,-33.29,30.25,-13,-55,33,0
1,0.06,16.38,30.25,-15,-54,34,0
1,0.06,-32.04,30.25,-13,-54,34,0
1,0.06,31.12,30.23,-14,-54,34,0
1,0.06,12.72,30.23,-14,-54,34,0
1,0.06,-25.8,30.23,-15,-54,35,0
1,0.06,19.5,30.23,-15,-54,34,0
1,0.06,-27.78,30.21,-14,-54,33,0
1,0.06,32.26,30.21,-15,-53,34,0
1,0.06,11.68,30.21,-15,-54,34,0
1,0.06,-31.23,30.21,-14,-54,34,0
1,0.06,24.41,30.19,-14,-54,34,0
1,0.07,-16.3,30.19,-13,-54,33,0
1,0.06,34.73,30.19,-13,-54,34,0
1,0.06,17.24,30.19,-13,-54,35,0
1,0.06,-51.2,30.17,-13,-54,34,0
1,0.06,30.01,30.17,-13,-54,34,0
1,0.06,-2.71,30.17,-14,-54,35,0
1,0.06,-10.09,30.17,-14,-54,34,0
1,0.06,29,30.15,-14,-54,34,0
1,0.06,-19.93,30.15,-13,-54,34,0
1,0.06,22.41,30.15,-14,-54,34,0
1,0.06,19.78,30.15,-14,-54,35,0
1,0.06,-24.45,30.15,-13,-54,34,0
1,0.06,28.86,30.15,-14,-54,34,0
1,0.06,15.14,30.15,-14,-54,34,0
1,0.06,-39.02,30.15,-8,-52,38,0
1,0.06,32.19,30.11,-11,-54,29,0
1,0.06,13.19,30.11,-18,-55,26,0
1,0.06,-53.2,30.11,-38,-53,0,0
1,0.03,6.25,30.11,-32,-52,16,0
1,0.02,-18.49,30.11,-34,-52,9,0
1,0.02,136.33,30.11,-42,-50,15,0
1,0.03,59.21,30.11,-41,-50,17,0
1,0.03,128.48,30.11,-35,-52,12,0
1,0.03,44.22,30.09,-40,-50,22,0
1,0.03,-60.85,30.09,-40,-49,18,0
1,0.04,-44.69,30.09,-35,-51,18,0
1,0.04,33.9,30.09,-41,-49,20,0
1,0.04,6.93,30.05,-37,-49,18,0
1,0.04,-49.14,30.05,-38,-49,19,0
1,0.04,17.26,30.05,-38,-50,18,0
1,0.04,-18.63,30.05,-39,-49,20,0
1,0.04,-34.51,30.05,-38,-50,19,0
1,0.04,36.66,30.05,-37,-50,19,0
1,0.04,-6.3,30.05,-38,-50,20,0
1,0.04,-37.15,30.05,-38,-50,20,0
1,0.04,13.03,30.05,-37,-50,20,0
1,0.04,-10.42,30.05,-37,-50,20,0
1,0.04,-1.8,30.05,-37,-50,20,0
1,0.04,13.88,30.05,-38,-50,20,0
1,0.04,-18.42,30.05,-37,-50,20,0
1,0.04,28.2,30.05,-38,-50,20,0
1,0.04,17.3,30.05,-37,-50,20,0
1,0.04,-35.86,30.05,-38,-50,20,0
1,0.04,29.94,30.03,-37,-50,20,0
1,0.04,6.29,30.03,-37,-50,20,0
1,0.04,-49.08,30.03,-37,-50,20,0
1,0.04,28.72,30.03,-37,-50,20,0
1,0.04,-11.67,30.03,-37,-50,20,0
1,0.04,-8.52,30.03,-37,-50,19,0
1,0.04,16.48,30.03,-37,-50,20,0
1,0.04,-9.28,30.03,-37,-50,20,0
1,0.04,24.04,30.03,-37,-50,20,0
1,0.04,17.1,30.03,-37,-50,20,0
1,0.04,-26.48,30.03,-37,-50,20,0
1,0.04,26.43,30.03,-37,-50,21,0
1,0.04,9.15,30.01,-37,-50,21,0
1,0.04,-41.26,30.01,-37,-50,20,0
1,0.04,28.31,30.01,-37,-50,21,0
1,0.04,-3.7,30.01,-36,-50,21,0
1,0.04,-32.41,30.01,-37,-51,21,0
1,0.04,22.02,30.01,-37,-51,21,0
1,0.04,-10.28,30.01,-37,-50,21,0
1,0.04,18.95,30.01,-36,-51,22,0
1,0.04,15.74,30.03,-36,-51,21,0
1,0.04,-35.07,30.03,-36,-51,21,0
1,0.04,34.88,30.03,-36,-51,21,0
1,0.04,4.01,30.03,-36,-50,22,0
1,0.04,-44.33,30.05,-36,-51,21,0
1,0.04,21.85,30.05,-36,-51,21,0
1,0.04,-1.32,30.05,-36,-51,22,0
1,0.04,-20.08,30.05,-36,-51,22,0
1,0.04,20.3,30.05,-36,-51,22,0
1,0.04,-18.27,30.05,-36,-50,22,0
1,0.04,24.59,30.05,-36,-50,21,0
1,0.04,18.82,30.05,-36,-51,22,0
1,0.04,-18.03,30.05,-36,-50,21,0
1,0.04,24.26,30.05,-36,-51,22,0
1,0.04,12.89,30.05,-36,-51,22,0
1,0.04,-33.57,30.05,-36,-51,22,0
1,0.04,31.42,30.07,-35,-50,22,0
1,0.04,6.73,30.07,-36,-51,22,0
1,0,-0.03,32.47,16,117,-3,0
1,0.74,5.06,32.47,-10,74,-6,0
1,0.9,17.91,32.47,-13,74,4,0
1,0.75,79.34,32.47,0,92,22,0
1,0.76,228.25,32.47,-1,109,6,0
1,0.77,-486.5,32.47,-4,68,3,0
1,0.74,-5.9,32.47,-14,70,10,0
1,0.78,156.15,32.47,-11,66,10,0
1,0.78,46.78,32.45,8,108,29,0
1,0.78,4.05,32.45,-2,72,-10,0
1,0.77,0.11,32.45,-3,49,-6,0
1,0.78,0.58,32.45,-28,92,7,0
1,0.77,2.45,32.45,-2,103,3,0
1,0.77,10.6,32.45,-5,75,-3,0
1,0.76,22.84,32.45,-19,75,2,0
1,0.75,-21.25,32.45,-8,75,10,0
1,0.75,-10.75,32.45,-22,97,30,0
1,0.76,-28.71,32.45,9,78,-3,0
1,0.75,4.42,32.45,-8,61,1,0
1,0.75,261.14,32.45,-39,72,79,0
1,0.75,9.7,32.43,-20,127,26,0
1,0.67,-289.05,32.43,24,20,-7,0
1,0.75,154.7,32.43,-72,58,-2,0
1,0.79,176.62,32.43,-25,-7,-15,0
1,0.8,-410.82,32.43,-83,30,19,0
1,0.8,182.59,32.43,-55,28,33,0
1,0.85,-66.47,32.43,-104,106,31,0
1,0.89,-168.11,32.43,-34,-10,6,0
1,0.89,-172.74,32.41,-54,42,11,0
1,0.77,-72.67,32.41,-25,32,29,0
1,0.88,354.05,32.41,-79,58,-14,0
1,0.92,-99.38,32.41,-79,14,-2,0
1,0.96,-1.76,32.45,-42,35,-1,0
1,0.92,51.26,32.45,-31,14,-13,0
1,0.83,107.66,32.45,-44,27,18,0
1,0.93,-115.99,32.45,-2,41,36,0
1,0.89,-32.4,32.43,-75,48,2,0
1,0.7,-197.93,32.43,-4,15,16,0
1,0.72,97.42,32.43,-53,77,82,0
1,0.86,-63.09,32.43,-20,-7,10,0
1,0.86,233.09,32.43,-16,81,31,0
1,0.85,302.13,32.43,-9,67,9,0
1,0.85,-70.03,32.43,-28,64,9,0
1,0.84,-360.9,32.43,-4,54,11,0
1,0.84,193.21,32.43,-30,91,1,0
1,0.84,-36.81,32.43,-1,50,-4,0
1,0.84,-190.03,32.43,-26,122,-1,0
1,0.86,37.3,32.43,11,61,38,0
1,0.86,69.05,32.39,-10,87,-1,0
1,0.86,64.51,32.39,-4,68,-13,0
1,0.85,-4.99,32.39,-16,72,11,0
1,0.86,118.75,32.39,31,86,56,0
1,0.86,-89.82,32.39,-5,87,-11,0
1,0.86,-307.84,32.39,-5,76,-12,0
1,0.87,72.78,32.39,-20,105,35,0
1,0.88,291.89,32.39,5,86,51,0
1,0.87,-174.88,32.39,-5,82,-3,0
1,0.87,-245.32,32.39,-5,76,-3,0
1,0.87,103.57,32.39,-22,98,17,0
1,0.88,256.84,32.39,4,68,33,0
1,0.88,-205.51,32.34,-2,81,-7,0
1,0.89,-183.4,32.34,-8,81,-7,0
1,0.87,103.51,32.34,-19,110,-2,0
1,0.88,114.38,32.34,18,67,52,0
1,0.87,-138.31,32.34,-17,91,-5,0
1,0.87,-230.44,32.34,-9,50,-4,0
1,0.87,11.14,32.34,-9,74,0,0
1,0.87,164.37,32.34,-13,89,17,0
1,0.87,-133.33,32.37,0,89,-10,0
1,0.88,-212.28,32.37,-3,50,7,0
1,0.87,79.91,32.37,-16,74,6,0
1,0.88,228.61,32.37,-17,66,20,0
1,0.88,-89.03,32.34,-8,98,3,0
1,0.88,-327.7,32.34,-4,51,6,0
1,0.87,76.34,32.34,-11,64,16,0
1,0.88,277.31,32.34,-24,63,17,0
1,0.88,48.86,32.33,-9,97,16,0
1,0.87,-215.11,32.33,-7,64,0,0
1,0.87,170.04,32.33,-12,65,8,0
1,0.87,196.98,32.33,-9,74,16,0
1,0.88,84.59,32.34,6,96,11,0
1,0.87,-270.63,32.34,-5,60,4,0
1,0.87,171.26,32.34,-12,66,6,0
1,0.87,260.53,32.34,-27,63,19,0
1,0.87,-77.91,32.34,3,125,2,0
1,0.87,-307.26,32.34,-3,59,-1,0
1,0.86,199.38,32.34,-16,71,10,0
1,0.87,269.7,32.34,-10,84,16,0
1,0.87,49.33,32.31,-2,121,6,0
1,0.87,-417.48,32.31,-2,84,8,0
1,0.87,182.61,32.31,-7,66,6,0
1,0.89,320.04,32.31,-16,86,13,0
1,0.9,-168.98,32.33,8,97,3,0
1,0.91,-357.9,32.33,-12,70,-4,0
1,0.92,162.5,32.33,-18,76,16,0
1,0.95,338.98,32.33,-18,90,8,0
1,0.98,-68,32.31,-12,110,15,0
1,1,-302.65,32.31,0,65,3,0
1,1.04,175.32,32.31,-17,87,0,0
1,1.01,247.97,32.31,2,78,15,0
1,1.03,-34.27,32.29,0,100,2,0
1,1.04,-339.99,32.29,-14,71,-3,0
1,1.07,133.57,32.29,-9,84,6,0
1,1.08,284.19,32.29,-17,84,11,0
1,1.08,-9.04,32.29,3,118,-14,0
1,1.07,-440.99,32.29,0,61,5,0
1,1.04,175.4,32.29,-17,89,0,0
1,1.03,284.39,32.29,3,78,23,0
1,1.02,71.92,32.29,11,108,-7,0
1,1,-366.46,32.29,4,69,-3,0
1,1,190.7,32.29,-20,100,-3,0
1,1.03,121.38,32.29,-4,97,30,0
1,1.04,36,32.29,10,122,-12,0
1,1.06,-385.09,32.29,-6,75,7,0
1,1.08,-19.65,32.29,-20,103,8,0
1,1.14,348.63,32.29,10,76,36,0
1,1.13,-40.65,32.27,9,97,-7,0
1,1.14,-363.09,32.27,-6,56,-5,0
1,0,-0.03,29.29,-43,36,32,1
1,0.35,5.06,29.29,-44,36,31,1
1,0.46,17.91,29.29,-44,36,32,1
1,0.45,79.34,29.29,-43,36,32,1
1,0.45,228.25,29.29,-44,36,31,1
1,0.45,-486.5,29.29,-44,36,32,1
1,0.45,-5.9,29.29,-44,36,32,1
1,0.45,156.15,29.29,-44,36,32,1
1,0.45,46.78,29.31,-44,36,32,1
1,0.45,4.05,29.31,-44,36,31,1
1,0.45,0.12,29.31,-44,36,32,1
1,0.45,0.68,29.31,-43,36,32,1
1,0.45,2.9,29.29,-44,36,32,1
1,0.45,11.99,29.29,-44,36,32,1
1,0.45,19.75,29.29,-44,36,32,1
1,0.45,-15.79,29.29,-43,36,32,1
1,0.45,11.16,29.27,-43,36,32,1
1,0.45,57.43,29.27,-43,36,32,1
1,0.45,89.47,29.27,-44,36,32,1
1,0.45,-229.36,29.27,-43,36,32,1
1,0.45,-46.8,29.27,-43,36,33,1
1,0.45,27.86,29.27,-43,36,33,1
1,0.45,18.23,29.27,-43,36,32,1
1,0.45,19.36,29.27,-43,36,33,1
1,0.45,7.78,29.31,-43,36,32,1
1,0.45,0.61,29.31,-43,36,32,1
1,0.46,4.04,29.31,-43,36,33,1
1,0.45,-9.05,29.31,-43,36,33,1
1,0.45,2.77,29.25,-43,36,33,1
1,0.45,3.95,29.25,-43,36,32,1
1,0.45,-1.06,29.25,-43,36,32,1
1,0.45,-8.96,29.25,-43,36,33,1
1,0.45,7.51,29.29,-43,36,32,1
1,0.45,8.19,29.29,-43,36,32,1
1,0.45,-20.87,29.29,-43,36,33,1
1,0.45,10.37,29.29,-43,36,33,1
1,0.45,-1.95,29.27,-44,36,32,1
1,0.45,-5.88,29.27,-43,36,33,1
1,0.45,6.69,29.27,-43,36,32,1
1,0.45,-10.59,29.27,-43,36,32,1
1,0.45,6.7,29.27,-43,36,33,1
1,0.45,12.97,29.27,-43,36,33,1
1,0.45,-18.74,29.27,-43,36,32,1
1,0.45,10.47,29.27,-43,36,33,1
1,0.45,10.02,29.31,-43,36,33,1
1,0.45,-13.76,29.31,-43,36,33,1
1,0.45,-0.08,29.31,-43,36,33,1
1,0.45,7,29.31,-43,36,32,1
1,0.45,-14.12,29.27,-43,36,33,1
1,0.46,17.63,29.27,-43,36,33,1
1,0.45,-1,29.27,-43,36,32,1
1,0.46,8.02,29.27,-43,36,32,1
1,0.45,8.56,29.27,-43,36,32,1
1,0.46,-19.65,29.27,-43,36,33,1
1,0.45,5.58,29.27,-43,36,32,1
1,0.45,8.09,29.27,-43,36,33,1
1,0.45,-9.46,29.27,-43,36,33,1
1,0.45,3.79,29.27,-43,36,33,1
1,0.45,-3.1,29.27,-43,36,32,1
1,0.46,10.56,29.27,-43,36,33,1
1,0.45,8.36,29.25,-43,36,33,1
1,0.45,-22.27,29.25,-43,36,33,1
1,0.45,17.57,29.25,-43,36,33,1
1,0.45,-9.65,29.25,-43,36,33,1
1,0.45,-5.51,29.27,-43,36,32,1
1,0.45,14.74,29.27,-44,36,32,1
1,0.45,-9.65,29.27,-44,36,32,1
1,0.45,11.54,29.27,-44,36,32,1
1,0.45,5.77,29.27,-44,36,31,1
1,0.45,-20.24,29.27,-45,35,31,1
1,0.45,20.68,29.27,-45,35,31,1
1,0.45,11.86,29.27,-45,35,30,1
1,0.45,-24.76,29.25,-45,35,32,1
1,0.46,11.37,29.25,-45,35,31,1
1,0.45,-4.93,29.25,-45,36,31,1
1,0.45,-1.67,29.25,-45,36,31,1
1,0.45,4.53,29.23,-46,35,30,1
1,0.45,-12.16,29.23,-45,36,30,1
1,0.45,17.77,29.23,-46,35,30,1
1,0.45,10.44,29.23,-45,36,30,1
1,0.45,-23.19,29.25,-45,36,31,1
1,0.45,13.59,29.25,-45,36,31,1
1,0.46,2.31,29.25,-45,36,31,1
1,0.45,-3.55,29.25,-45,35,30,1
1,0.45,8.94,29.25,-45,36,30,1
1,0.45,-5.75,29.25,-45,36,30,1
1,0.45,-2.79,29.25,-45,36,30,1
1,0.45,-2.44,29.25,-45,36,30,1
1,0.45,-27.14,29.25,-45,35,30,1
1,0.45,12.93,29.25,-45,36,30,1
1,0.45,2.12,29.25,-46,36,30,1
1,0.45,-19.87,29.25,-45,36,30,1
1,0.45,10.5,29.23,-45,36,30,1
1,0.45,-1.98,29.23,-45,36,31,1
1,0.45,8.37,29.23,-45,36,30,1
1,0.45,8.79,29.23,-45,36,31,1
1,0.45,-14.54,29.21,-45,36,31,1
1,0.45,13.89,29.21,-46,35,30,1
1,0.45,-4.92,29.21,-46,35,31,1
1,0.45,-24.63,29.21,-46,36,29,1
1,0.45,19.89,29.21,-44,36,32,1
1,0.45,1.33,29.21,-46,36,29,1
1,0.45,0.2,29.21,-44,36,31,1
1,0.45,1.54,29.21,-44,36,31,1
1,0.45,-7.08,29.23,-43,36,32,1
1,0.46,19.8,29.23,-44,36,31,1
1,0.45,2.81,29.23,-44,36,32,1
1,0.45,-21.75,29.23,-43,37,32,1
1,0.45,16.99,29.23,-38,38,34,1
1,0.45,-4.64,29.23,-39,38,34,1
1,0.46,2.64,29.23,-33,38,39,1
1,0.46,6.63,29.23,-31,40,37,1
1,0.46,-17.71,29.25,-29,40,39,1
1,0.46,0.96,29.25,-31,40,39,1
1,0.46,17.02,29.25,-30,40,40,1
1,0.46,4.34,29.25,-28,42,40,1
1,0.46,50.34,29.23,-29,38,48,1
1,0.46,25.05,29.23,-36,37,39,1
1,0,-0.03,32.57,10,-2,64,0
1,0.17,5.06,32.57,10,-2,64,0
1,0.24,17.91,32.57,10,-2,64,0
1,0.24,79.34,32.57,10,-2,64,0
1,0.24,228.25,32.57,10,-2,63,0
1,0.24,-486.5,32.57,10,-2,64,0
1,0.24,-5.9,32.57,9,-1,64,0
1,0.24,156.15,32.57,10,-1,64,0
1,0.24,46.78,32.55,10,-2,64,0
1,0.24,4.05,32.55,10,-1,64,0
1,0.24,0.16,32.55,9,-2,64,0
1,0.24,0.82,32.55,10,-2,64,0
1,0.24,3.62,32.55,9,-1,63,0
1,0.24,14.26,32.55,9,-1,64,0
1,0.24,14.12,32.55,9,-2,64,0
1,0.25,-17.98,32.55,9,-1,64,0
1,0.25,-4.48,32.5,9,-1,64,0
1,0.24,-12.92,32.5,9,-1,64,0
1,0.25,-53.31,32.5,9,-2,64,0
1,0.25,30.7,32.5,9,-1,64,0
1,0.25,14.41,32.5,9,-1,64,0
1,0.25,-3.74,32.5,9,-2,64,0
1,0.25,6.04,32.5,9,-2,64,0
1,0.25,1.11,32.5,9,-1,64,0
1,0.25,-6.99,32.49,9,-1,64,0
1,0.25,3.17,32.49,9,-1,64,0
1,0.25,7.32,32.49,9,-2,63,0
1,0.25,-12.18,32.49,9,-2,64,0
1,0.25,6.87,32.47,9,-1,64,0
1,0.25,-0.06,32.47,9,-1,64,0
1,0.25,-6.13,32.47,9,-1,64,0
1,0.25,1.72,32.47,9,-2,64,0
1,0.25,6.78,32.47,8,-1,64,0
1,0.25,-10.92,32.47,9,-2,64,0
1,0.25,4.47,32.47,9,-1,64,0
1,0.25,0.27,32.47,9,-1,64,0
1,0.25,-23.25,32.45,8,-1,64,0
1,0.26,-51.55,32.45,8,-2,64,0
1,0.25,48.63,32.45,8,-2,64,0
1,0.25,37.24,32.45,8,-1,64,0
1,0.25,15.07,32.43,8,-2,64,0
1,0.25,2.63,32.43,8,-2,64,0
1,0.25,-0.78,32.43,8,-2,64,0
1,0.25,6.64,32.43,9,-2,64,0
1,0.25,-5.3,32.43,8,-1,64,0
1,0.25,5.3,32.43,8,-1,64,0
1,0.25,1.84,32.43,8,-2,64,0
1,0.25,-3.67,32.43,8,-2,64,0
1,0.26,2.93,32.41,8,-2,64,0
1,0.26,3.65,32.41,8,-1,64,0
1,0.26,-4.44,32.41,8,-1,64,0
1,0.26,-1.83,32.41,8,-2,64,0
1,0.26,0.72,32.41,7,-2,64,0
1,0.26,-2.92,32.41,7,-1,64,0
1,0.26,-0.28,32.41,7,-1,64,0
1,0.25,6.17,32.41,7,-2,64,0
1,0.26,0.11,32.41,7,-2,64,0
1,0.25,0.61,32.41,7,-2,64,0
1,0.26,-0.32,32.41,7,-1,64,0
1,0.26,-2.76,32.41,7,-2,64,0
1,0.26,1.3,32.39,7,-1,64,0
1,0.26,6.75,32.39,7,-2,64,0
1,0.26,-13.58,32.39,7,-1,64,0
1,0.26,6.44,32.39,7,-2,64,0
1,0.26,3.82,32.37,7,-2,64,0
1,0.26,-12.12,32.37,7,-2,64,0
1,0.26,3.55,32.37,7,-2,64,0
1,0.26,-0.15,32.37,7,-1,64,0
1,0.26,-2.83,32.34,7,-1,64,0
1,0.26,6.91,32.34,7,-1,64,0
1,0.26,-2.92,32.34,6,-2,64,0
1,0.26,-2.67,32.34,7,-1,64,0
1,0.26,2.94,32.33,6,-1,64,0
1,0.26,6.54,32.33,6,-2,64,0
1,0.26,1.38,32.33,6,-1,64,0
1,0.26,4.28,32.33,8,-2,64,0
1,0.26,-11.87,32.33,11,-4,64,0
1,0.26,2.4,32.33,11,-2,64,0
1,0.26,4.37,32.33,6,-1,64,0
1,0.26,-7.74,32.33,10,-3,63,0
1,0.26,5.22,32.33,10,-2,64,0
1,0.27,-15.84,32.33,13,-2,61,0
1,0.27,-4.6,32.33,15,-1,61,0
1,0.26,54.93,32.33,18,0,63,0
1,0.27,-8.31,32.33,19,0,61,0
1,0.27,9.05,32.33,16,0,60,0
1,0.27,10.93,32.33,18,0,61,0
1,0.27,-21.16,32.33,18,0,62,0
1,0.27,-13.85,32.31,19,0,62,0
1,0.27,8.09,32.31,18,0,62,0
1,0.27,-26.23,32.31,16,1,61,0
1,0.27,-6.29,32.31,17,1,62,0
1,0.27,29.76,32.29,19,3,61,0
1,0.27,-8.2,32.29,19,3,58,0
1,0.27,50.76,32.29,20,3,62,0
1,0.27,79.78,32.29,27,4,59,0
1,0.27,42.83,32.29,23,4,54,0
1,0.27,-172.62,32.29,34,10,59,0
1,0.25,-219.26,32.29,23,17,64,0
1,0.22,271.18,32.29,20,20,59,0
1,0.23,22.35,32.29,9,17,58,0
1,0.24,84.11,32.29,19,17,54,0
1,0.25,-28.39,32.29,41,14,43,0
1,0.27,-99.7,32.29,58,21,21,0
1,0.23,-73.8,32.27,60,22,-6,0
1,0.21,200.79,32.27,56,21,-23,0
1,0.21,-175.05,32.27,54,19,-29,0
1,0.21,-60.21,32.27,51,17,-37,0
1,0.21,-17.33,32.25,58,16,-35,0
1,0.21,47.19,32.25,56,16,0,0
1,0.2,72.93,32.25,13,17,41,0
1,0.21,66.92,32.25,59,13,41,0
1,0.21,-74.83,32.23,53,11,37,0
1,0.22,-193.26,32.23,41,6,54,0
1,0.22,382.97,32.23,40,4,58,0
1,0.23,-326.67,32.23,38,5,48,0
1,0.24,50.92,32.23,44,7,45,0
1,0.24,-69.94,32.23,39,4,50,0
1,0,-0.03,39.39,46,-26,38,0
1,0.11,5.06,39.39,46,-26,38,0
1,0.17,17.91,39.39,46,-26,38,0
1,0.17,79.34,39.39,46,-27,38,0
1,0.17,228.25,39.39,46,-26,38,0
1,0.17,-486.5,39.39,46,-26,38,0
1,0.17,-5.9,39.39,46,-26,38,0
1,0.17,156.15,39.39,46,-27,38,0
1,0.17,46.78,39.39,43,-25,37,0
1,0.17,4.05,39.39,47,-26,38,0
1,0.17,0.12,39.39,45,-29,37,0
1,0.17,0.67,39.39,45,-28,38,0
1,0.17,2.85,39.41,45,-28,38,0
1,0.17,11.9,39.41,45,-28,38,0
1,0.17,21.66,39.41,45,-28,37,0
1,0.17,-17.1,39.41,46,-29,38,0
1,0.17,5.76,39.37,45,-28,37,0
1,0.17,43.91,39.37,45,-28,37,0
1,0.17,30.76,39.37,45,-28,38,0
1,0.17,-143.29,39.37,45,-29,37,0
1,0.17,2.36,39.37,45,-29,38,0
1,0.17,37.7,39.37,45,-28,38,0
1,0.17,22.85,39.37,45,-28,38,0
1,0.17,-24.27,39.37,45,-28,37,0
1,0.17,-4.71,39.33,45,-28,37,0
1,0.17,-3.71,39.33,45,-28,38,0
1,0.18,19.41,39.33,45,-28,38,0
1,0.17,19.71,39.33,45,-28,37,0
1,0.17,-27.38,39.33,45,-28,37,0
1,0.17,1.32,39.33,45,-28,38,0
1,0.17,-11.93,39.33,45,-29,38,0
1,0.17,22.65,39.33,45,-28,37,0
1,0.17,8.31,39.31,45,-29,37,0
1,0.17,-1.85,39.31,45,-29,37,0
1,0.17,18.59,39.31,45,-29,38,0
1,0.17,-18.37,39.31,46,-29,37,0
1,0.18,14.63,39.29,40,-21,35,0
1,0.17,-9.2,39.29,43,-12,41,0
1,0.17,-0.13,39.29,52,-15,40,0
1,0.17,-28.83,39.29,44,-31,27,0
1,0.18,38.88,39.27,23,1,-1,0
1,0.17,157.64,39.27,41,-16,-1,0
1,0.17,217.08,39.27,54,-12,0,0
1,0.16,116.56,39.27,61,-13,1,0
1,0.16,-66.55,39.25,69,-17,-3,0
1,0.16,-376.45,39.25,66,-16,-1,0
1,0.16,16.5,39.25,67,-12,-1,0
1,0.16,210.63,39.25,69,-14,-2,0
1,0.16,-154.81,39.21,64,-14,0,0
1,0.16,-228.35,39.21,65,-14,0,0
1,0.16,-354.66,39.21,63,-13,-3,0
1,0.16,-26.15,39.21,65,-14,-1,0
1,0.16,109.19,39.21,65,-13,-2,0
1,0.16,68.94,39.21,64,-14,-2,0
1,0.16,74.58,39.21,65,-13,-1,0
1,0.16,160.11,39.21,65,-13,-1,0
1,0.16,369.62,39.18,65,-13,-1,0
1,0.16,-15.33,39.18,64,-13,-1,0
1,0.16,-64.96,39.18,64,-13,0,0
1,0.16,-9.97,39.18,66,-13,-1,0
1,0.16,-41.51,39.16,65,-13,0,0
1,0.16,-18.07,39.16,65,-13,-1,0
1,0.16,94.04,39.16,65,-13,0,0
1,0.16,66.98,39.16,65,-13,0,0
1,0.16,-130.79,39.11,65,-13,0,0
1,0.16,9.92,39.11,64,-13,0,0
1,0.16,-9.8,39.11,65,-13,0,0
1,0.16,-8.05,39.11,64,-13,1,0
1,0.16,-28.84,39.09,64,-13,1,0
1,0.16,-14.29,39.09,65,-13,1,0
1,0.16,-59.24,39.09,64,-13,0,0
1,0.16,13.94,39.09,65,-13,0,0
1,0.16,42.07,39.07,64,-13,0,0
1,0.16,-26.71,39.07,64,-13,1,0
1,0.16,-5.59,39.07,65,-13,0,0
1,0.16,-32.76,39.07,65,-13,0,0
1,0.16,-42.01,39.09,65,-13,1,0
1,0.16,8.14,39.09,64,-13,1,0
1,0.16,54.59,39.09,64,-13,0,0
1,0.16,1.81,39.09,65,-13,1,0
1,0.16,22.92,39.05,65,-12,1,0
1,0.16,21.07,39.05,65,-13,1,0
1,0.16,-21.67,39.05,65,-12,2,0
1,0.16,24.86,39.05,65,-12,1,0
1,0.16,61.63,39.05,65,-12,3,0
1,0.16,16.13,39.05,65,-12,2,0
1,0.16,-16.7,39.05,65,-13,2,0
1,0.16,-25.3,39.05,67,-14,2,0
1,0.16,19.83,39.05,64,-12,2,0
1,0.16,5.25,39.05,64,-12,2,0
1,0.16,-19.25,39.05,64,-12,2,0
1,0.16,-86.65,39.05,65,-12,2,0
1,0.16,-25.06,39.03,64,-12,2,0
1,0.16,31.33,39.03,64,-13,2,0
1,0.16,33.51,39.03,66,-12,2,0
1,0.16,-37.01,39.03,64,-12,3,0
1,0.16,-14.29,39,65,-12,3,0
1,0.16,-20.48,39,64,-12,3,0
1,0.16,-33.96,39,65,-12,2,0
1,0.16,-50.38,39,65,-12,3,0
1,0.16,50.32,38.99,65,-12,3,0
1,0.16,-38.62,38.99,64,-12,3,0
1,0.16,-4.8,38.99,65,-12,2,0
1,0.16,20.16,38.99,64,-12,2,0
1,0.16,18.81,38.99,65,-12,2,0
1,0.16,4.81,38.99,64,-12,3,0
1,0.16,55.38,38.99,64,-12,3,0
1,0.17,6.51,38.99,66,-12,2,0
1,0.17,-11.31,38.97,66,-12,2,0
1,0.16,25.98,38.97,65,-12,3,0
1,0.17,20.84,38.97,65,-12,3,0
1,0.16,12.67,38.97,65,-12,3,0
1,0.17,-15.27,38.97,64,-12,2,0
1,0.17,-15.61,38.97,65,-12,3,0
1,0.17,42.11,38.97,66,-12,2,0
1,0.17,-20.57,38.97,65,-12,2,0
1,0.16,-16,38.97,65,-12,2,0
1,0.17,-24.47,38.97,64,-12,2,0
1,0,-0.03,33.87,48,43,18,0
1,0.18,5.06,33.87,47,42,19,0
1,0.27,17.91,33.87,50,43,24,0
1,0.26,79.34,33.87,47,42,24,0
1,0.26,228.25,33.87,44,43,26,0
1,0.26,-486.45,33.87,43,42,27,0
1,0.25,-4.91,33.87,39,41,28,0
1,0.26,160.67,33.87,36,41,29,0
1,0.26,65.38,33.81,39,42,29,0
1,0.26,31.75,33.81,40,42,28,0
1,0.26,-17.37,33.81,39,42,28,0
1,0.26,19.4,33.81,39,42,28,0
1,0.26,78.56,33.83,39,42,28,0
1,0.26,150.21,33.83,39,42,28,0
1,0.26,51.89,33.83,39,42,28,0
1,0.26,0.25,33.83,39,42,28,0
1,0.26,-3.41,33.81,40,41,28,0
1,0.26,-33.16,33.81,39,42,29,0
1,0.26,-124.74,33.81,39,42,28,0
1,0.26,-364.73,33.81,39,41,28,0
1,0.26,-19.02,33.81,39,42,29,0
1,0.26,72.07,33.81,39,42,28,0
1,0.26,-57.67,33.81,40,42,29,0
1,0.26,55.61,33.81,39,42,29,0
1,0.26,-142.41,33.81,41,42,29,0
1,0.26,82.5,33.81,41,42,29,0
1,0.26,9.29,33.81,40,42,29,0
1,0.26,-41.97,33.81,39,42,30,0
1,0.26,-21.02,33.77,38,42,30,0
1,0.26,-31.07,33.77,37,42,31,0
1,0.26,-64.39,33.77,37,41,31,0
1,0.26,27.47,33.77,38,42,31,0
1,0.26,4.56,33.77,35,40,33,0
1,0.26,11.56,33.77,36,41,32,0
1,0.26,26.19,33.77,37,41,31,0
1,0.26,-9.09,33.77,35,41,31,0
1,0.26,-96.2,33.77,36,42,30,0
1,0.27,53.76,33.77,38,41,30,0
1,0.26,114.65,33.77,39,41,29,0
1,0.27,49.16,33.77,38,41,30,0
1,0.26,-10.41,33.75,38,41,30,0
1,0.26,78.63,33.75,39,42,30,0
1,0.27,91.48,33.75,37,42,30,0
1,0.27,-16.2,33.75,39,42,27,0
1,0.26,-104.06,33.73,41,43,27,0
1,0.26,-104.95,33.73,41,42,27,0
1,0.27,-24.47,33.73,39,43,29,0
1,0.27,-188.26,33.73,39,41,29,0
1,0.27,229.68,33.73,38,41,29,0
1,0.26,1.62,33.73,39,42,29,0
1,0.27,-104.74,33.73,36,41,32,0
1,0.27,22.48,33.73,34,41,32,0
1,0.27,4.01,33.75,36,40,33,0
1,0.27,84.73,33.75,37,42,30,0
1,0.27,-20.93,33.75,37,42,31,0
1,0.27,59,33.75,38,42,31,0
1,0.27,92.74,33.73,36,42,32,0
1,0.27,87.94,33.73,36,41,32,0
1,0.27,-3.55,33.73,37,41,32,0
1,0.27,-20.95,33.73,38,42,31,0
1,0.27,3.4,33.71,35,41,32,0
1,0.27,40.89,33.71,36,42,32,0
1,0.27,-14.12,33.71,37,42,32,0
1,0.27,4.48,33.71,36,42,32,0
1,0.27,-18.71,33.68,35,41,32,0
1,0.27,-7.36,33.68,36,42,33,0
1,0.27,-29.32,33.68,37,42,33,0
1,0.27,-20.11,33.68,36,41,33,0
1,0.27,-0.64,33.68,36,42,33,0
1,0.27,-11.12,33.68,36,42,33,0
1,0.28,23.52,33.68,35,41,33,0
1,0.27,16.82,33.68,37,42,32,0
1,0.27,10.83,33.71,37,41,32,0
1,0.27,23.46,33.71,37,42,32,0
1,0.27,-136.82,33.71,36,41,32,0
1,0.27,4.29,33.71,36,42,32,0
1,0.27,37.39,33.66,36,41,32,0
1,0.27,13.3,33.66,37,42,31,0
1,0.27,-25.58,33.66,34,41,32,0
1,0.27,38.93,33.66,36,41,31,0
1,0.27,-25.08,33.68,37,41,32,0
1,0.27,20.19,33.68,37,41,32,0
1,0.28,10.92,33.68,37,41,32,0
1,0.27,14.37,33.68,37,42,31,0
1,0.27,6.02,33.68,37,41,32,0
1,0.27,38,33.68,37,42,31,0
1,0.27,-0.71,33.68,37,41,31,0
1,0.27,-7.1,33.68,37,41,31,0
1,0.27,-5.16,33.68,38,41,32,0
1,0.27,8.35,33.68,38,42,31,0
1,0.27,2.92,33.68,36,41,32,0
1,0.27,-18.85,33.68,37,41,32,0
1,0.27,14.03,33.66,36,41,32,0
1,0.27,17.29,33.66,36,41,32,0
1,0.27,-13.61,33.66,37,42,31,0
1,0.27,15.45,33.66,38,41,31,0
1,0.27,-27.23,33.65,38,41,31,0
1,0.27,34.94,33.65,37,41,32,0
1,0.27,-2.96,33.65,39,42,30,0
1,0.27,15.25,33.65,37,41,31,0
1,0.27,51.21,33.65,38,42,31,0
1,0.28,-51.66,33.65,37,41,31,0
1,0.27,9.74,33.65,38,42,31,0
1,0.27,-15.49,33.65,37,41,31,0
1,0.27,-2.59,33.65,38,41,31,0
1,0.28,-7.57,33.65,36,41,32,0
1,0.28,-4.87,33.65,37,41,31,0
1,0.28,10.88,33.65,37,42,31,0
1,0.27,2.23,33.65,36,41,32,0
1,0.28,3.81,33.65,36,41,32,0
1,0.27,-3.4,33.65,38,41,31,0
1,0.28,-88.06,33.65,37,41,32,0
1,0.27,50.73,33.63,37,41,32,0
1,0.28,-39.33,33.63,37,42,32,0
1,0.27,-187.29,33.63,37,41,32,0
1,0.27,241.97,33.63,37,42,32,0
1,0.28,31.1,33.63,37,41,32,0
1,0.28,-4.9,33.63,38,41,31,0
1,0,-0.03,29.23,11,2,63,0
1,0.46,5.06,29.23,12,3,64,0
1,0.6,17.91,29.23,11,3,64,0
1,0.59,79.34,29.23,10,3,64,0
1,0.59,228.25,29.23,9,3,64,0
1,0.59,-486.5,29.23,9,2,64,0
1,0.59,-5.9,29.23,10,3,64,0
1,0.59,156.15,29.23,10,2,64,0
1,0.59,46.78,29.21,10,3,64,0
1,0.59,4.05,29.21,9,2,63,0
1,0.59,0.17,29.21,9,3,64,0
1,0.59,0.87,29.21,9,2,63,0
1,0.59,3.82,29.19,9,2,64,0
1,0.59,14.89,29.19,9,3,64,0
1,0.59,12.2,29.19,8,2,64,0
1,0.59,-13.14,29.19,9,2,63,0
1,0.59,16.75,29.21,8,2,64,0
1,0.59,67.11,29.21,8,2,64,0
1,0.59,50.27,29.21,8,2,63,0
1,0.59,-260.17,29.21,2,3,64,0
1,0.59,-14.4,29.19,10,1,63,0
1,0.59,28.1,29.19,12,2,63,0
1,0.59,26.66,29.19,13,-4,59,0
1,0.59,16.29,29.19,18,-2,61,0
1,0.59,10.8,29.19,19,-2,64,0
1,0.59,109.3,29.19,21,0,60,0
1,0.59,-12.37,29.19,28,1,59,0
1,0.59,-99.01,29.19,24,0,60,0
1,0.59,-66.61,29.15,32,1,55,0
1,0.59,3.98,29.15,36,1,54,0
1,0.59,52.85,29.15,33,1,55,0
1,0.59,10.25,29.15,32,0,56,0
1,0.59,-17.35,29.19,31,0,57,0
1,0.59,27.64,29.19,31,0,57,0
1,0.59,12.76,29.19,32,0,56,0
1,0.59,15.17,29.19,31,0,57,0
1,0.59,3.68,29.19,31,0,56,0
1,0.6,-28.2,29.19,32,0,56,0
1,0.59,-21.73,29.19,32,0,56,0
1,0.6,9.61,29.19,31,0,57,0
1,0.59,2.53,29.19,31,0,57,0
1,0.59,12.63,29.19,31,0,55,0
1,0.59,4.91,29.19,32,0,56,0
1,0.6,-7.16,29.19,32,0,57,0
1,0.59,0.72,29.15,31,0,57,0
1,0.59,-4.75,29.15,31,0,56,0
1,0.59,8.14,29.15,31,0,56,0
1,0.6,4.89,29.15,31,0,56,0
1,0.59,-4.33,29.19,31,0,57,0
1,0.59,4.02,29.19,31,0,56,0
1,0.59,1.13,29.19,31,0,56,0
1,0.59,-1.13,29.19,31,0,57,0
1,0.59,0.68,29.15,31,0,56,0
1,0.6,-3.06,29.15,31,0,56,0
1,0.6,-1.81,29.15,31,0,56,0
1,0.6,1.53,29.15,30,0,57,0
1,0.6,-9.25,29.17,29,0,57,0
1,0.6,1.51,29.17,28,0,58,0
1,0.6,4.28,29.17,25,0,59,0
1,0.6,-5.2,29.17,24,1,60,0
1,0.59,-5.06,29.17,24,1,60,0
1,0.6,1.78,29.17,23,1,60,0
1,0.6,-1.42,29.17,22,1,60,0
1,0.6,6.43,29.17,22,1,61,0
1,0.6,2.84,29.19,22,1,60,0
1,0.59,-11.3,29.19,23,1,61,0
1,0.59,2.9,29.19,23,1,60,0
1,0.6,11.51,29.19,22,1,61,0
1,0.59,-1.77,29.17,22,1,60,0
1,0.59,3.9,29.17,23,1,60,0
1,0.59,2.59,29.17,22,1,61,0
1,0.6,-0.66,29.17,22,1,60,0
1,0.6,3.88,29.19,23,1,60,0
1,0.6,-5.11,29.19,23,1,60,0
1,0.59,3.1,29.19,22,1,60,0
1,0.6,1.39,29.19,23,1,60,0
1,0.59,-5.55,29.15,22,1,60,0
1,0.6,0.06,29.15,23,1,60,0
1,0.59,3.24,29.15,22,1,60,0
1,0.6,-4.8,29.15,23,1,61,0
1,0.6,1.57,29.15,23,1,60,0
1,0.6,-0.37,29.15,22,1,60,0
1,0.6,0.93,29.15,22,1,61,0
1,0.6,-0.29,29.15,23,1,60,0
1,0.6,-3.32,29.15,23,1,60,0
1,0.59,0.42,29.15,23,1,60,0
1,0.6,2.24,29.15,22,1,60,0
1,0.59,1.22,29.15,23,1,60,0
1,0.59,-3.85,29.15,23,1,60,0
1,0.59,1.16,29.15,22,1,60,0
1,0.59,-0.71,29.15,22,1,60,0
1,0.6,0.39,29.15,23,1,60,0
1,0.59,7.01,29.13,22,1,60,0
1,0.59,-3.9,29.13,23,1,61,0
1,0.6,2.2,29.13,23,1,61,0
1,0.6,-1.43,29.13,23,1,60,0
1,0.59,-2.93,29.15,22,1,60,0
1,0.59,2.29,29.15,22,1,60,0
1,0.59,3.57,29.15,22,1,60,0
1,0.6,-1.15,29.15,23,1,61,0
1,0.6,6.68,29.15,23,1,61,0
1,0.6,6.25,29.15,23,1,61,0
1,0.6,-5.2,29.15,24,2,60,0
1,0.59,0.49,29.15,25,2,57,0
1,0.59,-10.71,29.15,23,2,59,0
1,0.6,-4.73,29.15,24,1,59,0
1,0.59,13.98,29.15,26,1,59,0
1,0.59,-1.2,29.15,27,1,59,0
1,0.59,-19.08,29.13,24,0,59,0
1,0.59,2.1,29.13,26,0,59,0
1,0.59,4.6,29.13,25,1,59,0
1,0.59,0.78,29.13,25,0,59,0
1,0.59,0.17,29.13,25,1,59,0
1,0.59,-0.13,29.13,25,1,59,0
1,0.59,-4.38,29.13,24,1,59,0
1,0.59,5.71,29.13,25,1,59,0
1,0.59,-0.74,29.13,25,1,59,0
1,0.59,2.17,29.13,25,1,59,0
1,0,-0.03,29.31,21,25,53,1
1,0.11,5.06,29.31,30,21,60,1
1,0.18,17.91,29.31,25,23,55,1
1,0.17,79.34,29.31,25,23,54,1
1,0.17,228.25,29.31,25,23,54,1
1,0.17,-486.5,29.31,25,24,53,1
1,0.17,-5.9,29.31,28,22,54,1
1,0.17,156.15,29.31,24,22,52,1
1,0.17,46.78,29.35,26,24,54,1
1,0.18,4.05,29.35,25,24,53,1
1,0.18,0.13,29.35,19,26,50,1
1,0.17,0.7,29.35,22,20,57,1
1,0.17,3.05,29.37,25,20,56,1
1,0.17,12.53,29.37,26,21,56,1
1,0.17,19.75,29.37,22,23,52,1
1,0.17,-15.06,29.37,19,22,65,1
1,0.17,-11.62,29.39,15,21,58,1
1,0.17,-29.58,29.39,16,21,57,1
1,0.17,105.46,29.39,22,22,58,1
1,0.17,26.28,29.39,30,23,54,1
1,0.17,-71.05,29.39,37,26,50,1
1,0.18,11.6,29.39,34,27,46,1
1,0.18,186.8,29.39,34,26,45,1
1,0.18,140.93,29.39,35,27,44,1
1,0.18,241.24,29.37,34,26,45,1
1,0.18,-178.05,29.37,37,23,54,1
1,0.18,-462.79,29.37,35,25,51,1
1,0.18,-131.95,29.37,38,26,52,1
1,0.18,-475.4,29.41,32,26,50,1
1,0.18,-133.53,29.41,34,26,50,1
1,0.18,74.85,29.41,27,25,53,1
1,0.18,160.47,29.41,23,26,54,1
1,0.18,68.51,29.41,24,26,53,1
1,0.18,39.07,29.41,23,24,54,1
1,0.18,47.21,29.41,25,23,52,1
1,0.18,75.69,29.41,26,24,53,1
1,0.18,252.05,29.43,27,24,53,1
1,0.18,334.68,29.43,25,24,54,1
1,0.18,-27.92,29.43,25,23,54,1
1,0.18,-99.95,29.43,25,23,53,1
1,0.18,6.51,29.45,25,24,53,1
1,0.18,62.34,29.45,24,24,53,1
1,0.18,57.46,29.45,25,26,53,1
1,0.18,-50.02,29.45,27,24,52,1
1,0.18,-64.97,29.43,25,24,54,1
1,0.18,-5.46,29.43,25,24,53,1
1,0.18,-28.33,29.43,25,25,53,1
1,0.18,31.48,29.43,24,24,54,1
1,0.18,-36.2,29.49,25,23,53,1
1,0.18,-7.67,29.49,27,25,54,1
1,0.18,-6.88,29.49,25,24,54,1
1,0.18,12.02,29.49,25,24,53,1
1,0.18,5.78,29.47,25,24,53,1
1,0.18,-38.49,29.47,24,24,53,1
1,0.18,45.28,29.47,24,24,53,1
1,0.18,11.01,29.47,24,23,54,1
1,0.18,-62.19,29.45,25,24,54,1
1,0.18,49.73,29.45,25,23,55,1
1,0.18,-56.41,29.45,24,24,53,1
1,0.19,264.92,29.45,24,24,54,1
1,0.18,-163.43,29.45,28,24,52,1
1,0.18,-35.54,29.45,25,25,52,1
1,0.19,-30.01,29.45,24,26,53,1
1,0.19,-26.95,29.45,22,25,54,1
1,0.18,-54.17,29.47,23,25,55,1
1,0.19,-8.24,29.47,23,25,54,1
1,0.19,47.83,29.47,23,24,54,1
1,0.19,-12.71,29.47,24,25,54,1
1,0.19,25.11,29.45,24,25,54,1
1,0.19,17.49,29.45,24,24,54,1
1,0.19,-8.16,29.45,24,25,55,1
1,0.19,-37.73,29.45,23,23,54,1
1,0.19,0.07,29.47,24,23,53,1
1,0.19,39.21,29.47,24,24,54,1
1,0.19,37.26,29.47,23,25,55,1
1,0.19,-27.25,29.47,24,24,54,1
1,0.19,-45.48,29.47,23,24,54,1
1,0.19,-22.73,29.47,25,25,54,1
1,0.19,-27.04,29.47,24,25,54,1
1,0.19,26.55,29.47,23,25,54,1
1,0.19,13.6,29.47,23,25,54,1
1,0.19,-6.33,29.47,22,24,54,1
1,0.19,24.61,29.47,24,26,54,1
1,0.19,45.37,29.47,23,25,51,1
1,0.19,-28.82,29.47,25,26,53,1
1,0.19,-49.61,29.47,24,26,53,1
1,0.2,6,29.47,22,25,52,1
1,0.2,0.58,29.47,23,26,54,1
1,0.2,29.52,29.49,24,25,54,1
1,0.2,-2.62,29.49,23,25,54,1
1,0.2,-121.67,29.49,24,26,54,1
1,0.2,-21.86,29.49,24,25,53,1
1,0.2,-68.29,29.49,23,25,53,1
1,0.2,164.38,29.49,24,25,54,1
1,0.2,-20.15,29.49,23,25,54,1
1,0.2,-9.05,29.49,23,25,54,1
1,0.2,-21.47,29.49,24,25,54,1
1,0.2,-7.37,29.49,24,24,53,1
1,0.2,13.92,29.49,24,25,54,1
1,0.2,-7.42,29.49,23,25,54,1
1,0.2,-7.81,29.51,23,25,52,1
1,0.2,0.5,29.51,24,26,53,1
1,0.2,-13.81,29.51,25,25,53,1
1,0.2,-6.19,29.51,26,26,52,1
1,0.2,0.17,29.49,25,26,53,1
1,0.2,2.18,29.49,23,25,54,1
1,0.2,3.62,29.49,23,25,54,1
1,0.2,17.28,29.49,23,25,53,1
1,0.2,57.94,29.49,24,25,53,1
1,0.2,6.14,29.49,23,24,54,1
1,0.2,42.53,29.49,23,25,54,1
1,0.2,-9.36,29.49,23,25,54,1
1,0.2,-24.81,29.47,23,25,54,1
1,0.2,-2.35,29.47,23,25,54,1
1,0.2,-14.04,29.47,23,25,53,1
1,0.2,5.22,29.47,23,26,54,1
1,0.2,2.83,29.51,23,26,54,1
1,0.2,9.03,29.51,24,25,54,1
1,0,-0.03,31.61,-51,-27,33,1
1,0.12,5.06,31.61,-51,-26,33,1
1,0.18,17.91,31.61,-51,-27,33,1
1,0.18,79.34,31.61,-51,-27,32,1
1,0.18,228.25,31.61,-51,-28,31,1
1,0.18,-486.5,31.61,-50,-27,33,1
1,0.18,-5.9,31.61,-51,-26,33,1
1,0.18,156.15,31.61,-53,-27,32,1
1,0.18,46.78,31.59,-52,-27,32,1
1,0.18,4.05,31.59,-52,-28,31,1
1,0.18,0.13,31.59,-52,-28,31,1
1,0.18,0.74,31.59,-50,-28,32,1
1,0.18,3.16,31.59,-51,-27,34,1
1,0.18,12.94,31.59,-53,-28,32,1
1,0.18,18.62,31.59,-52,-27,33,1
1,0.18,-16.44,31.59,-51,-27,33,1
1,0.18,13.46,31.59,-52,-28,30,1
1,0.18,59.89,31.59,-52,-29,29,1
1,0.19,82.44,31.59,-52,-30,29,1
1,0.18,-254.79,31.59,-52,-29,29,1
1,0.19,-58.28,31.61,-53,-29,29,1
1,0.18,29.08,31.61,-52,-29,29,1
1,0.19,30.83,31.61,-52,-29,29,1
1,0.19,3.38,31.61,-53,-29,29,1
1,0.18,20.71,31.57,-52,-29,28,1
1,0.19,11.62,31.57,-52,-30,28,1
1,0.19,-5.97,31.57,-53,-29,28,1
1,0.19,20.29,31.57,-53,-29,28,1
1,0.18,-10.93,31.57,-53,-29,28,1
1,0.19,13.55,31.57,-53,-29,29,1
1,0.19,13.34,31.57,-52,-29,29,1
1,0.19,-4.85,31.57,-53,-29,29,1
1,0.19,12.45,31.57,-53,-29,29,1
1,0.19,6.27,31.57,-53,-29,29,1
1,0.19,-28.06,31.57,-53,-29,28,1
1,0.19,12.13,31.57,-52,-30,29,1
1,0.19,15.17,31.59,-52,-30,29,1
1,0.19,-20.23,31.59,-52,-30,28,1
1,0.19,7.66,31.59,-52,-30,29,1
1,0.19,21.43,31.59,-52,-29,29,1
1,0.19,-24.08,31.57,-52,-30,29,1
1,0.19,22.59,31.57,-52,-30,29,1
1,0.19,0.37,31.57,-52,-30,28,1
1,0.19,-25.54,31.57,-53,-30,28,1
1,0.19,15.92,31.57,-52,-30,28,1
1,0.19,1.51,31.57,-52,-30,27,1
1,0.19,-27.3,31.57,-52,-30,28,1
1,0.19,11.57,31.57,-52,-30,28,1
1,0.19,8.89,31.55,-52,-30,28,1
1,0.19,-10.61,31.55,-52,-31,28,1
1,0.19,13.45,31.55,-52,-30,27,1
1,0.19,20.06,31.55,-52,-30,28,1
1,0.19,-18.41,31.57,-53,-30,28,1
1,0.19,8.97,31.57,-52,-30,28,1
1,0.19,14.28,31.57,-52,-30,28,1
1,0.19,-18.67,31.57,-52,-30,27,1
1,0.19,8.64,31.55,-52,-30,28,1
1,0.19,14.43,31.55,-52,-30,28,1
1,0.19,-11.36,31.55,-52,-30,28,1
1,0.19,12.1,31.55,-52,-30,28,1
1,0.19,14.72,31.55,-51,-30,28,1
1,0.19,-21.06,31.55,-52,-30,28,1
1,0.19,14.59,31.55,-52,-30,28,1
1,0.19,6.97,31.55,-52,-30,28,1
1,0.19,-29.6,31.53,-52,-30,27,1
1,0.19,16.38,31.53,-52,-30,27,1
1,0.19,13.64,31.53,-52,-30,28,1
1,0.19,-32.41,31.53,-53,-30,28,1
1,0.19,23.03,31.53,-52,-30,28,1
1,0.19,16.95,31.53,-52,-30,28,1
1,0.2,-28.05,31.53,-52,-30,28,1
1,0.19,14.72,31.53,-53,-30,28,1
1,0.19,12.08,31.55,-52,-30,28,1
1,0.19,-26.67,31.55,-52,-31,28,1
1,0.19,14.15,31.55,-52,-31,28,1
1,0.19,21.43,31.55,-52,-30,28,1
1,0.19,-15.69,31.53,-52,-30,28,1
1,0.19,1.74,31.53,-52,-30,28,1
1,0.19,26.73,31.53,-52,-30,28,1
1,0.19,-0.85,31.53,-52,-30,28,1
1,0.19,-16.82,31.53,-52,-30,28,1
1,0.2,10.48,31.53,-52,-30,28,1
1,0.19,-1.47,31.53,-52,-30,28,1
1,0.19,-41.71,31.53,-52,-31,28,1
1,0.19,18.63,31.53,-52,-30,28,1
1,0.19,18.55,31.53,-52,-30,28,1
1,0.19,-32.14,31.53,-52,-30,28,1
1,0.19,20.2,31.53,-52,-30,28,1
1,0.19,15.06,31.53,-52,-30,28,1
1,0.19,-33.52,31.53,-52,-30,28,1
1,0.19,15.66,31.53,-53,-30,28,1
1,0.19,9.6,31.53,-52,-30,28,1
1,0.19,-34.15,31.51,-53,-30,28,1
1,0.19,11.64,31.51,-52,-30,28,1
1,0.19,6.08,31.51,-52,-30,28,1
1,0.19,-22.33,31.51,-53,-30,28,1
1,0.19,15.64,31.51,-53,-30,29,1
1,0.19,17.43,31.51,-52,-30,28,1
1,0.2,-22.05,31.51,-52,-30,28,1
1,0.19,11.13,31.51,-52,-30,28,1
1,0.2,7.47,31.51,-52,-30,28,1
1,0.19,-27.77,31.51,-52,-30,28,1
1,0.2,13.28,31.51,-52,-30,28,1
1,0.2,13.34,31.51,-52,-30,28,1
1,0.2,-24.03,31.51,-52,-30,28,1
1,0.2,17.34,31.51,-52,-30,28,1
1,0.2,20.99,31.51,-52,-30,28,1
1,0.2,-11.78,31.51,-52,-30,28,1
1,0.2,9.74,31.49,-52,-30,28,1
1,0.2,12.69,31.49,-53,-30,27,1
1,0.2,-16.89,31.49,-52,-30,27,1
1,0.2,-0.07,31.49,-53,-31,27,1
1,0.2,19.82,31.49,-52,-31,27,1
1,0.2,-5.39,31.49,-52,-31,27,1
1,0.2,-17.29,31.49,-52,-30,28,1
1,0.2,17.39,31.49,-52,-31,28,1
1,0.2,5.47,31.49,-52,-30,28,1
1,0.2,-18.01,31.49,-52,-31,28,1
1,0,-0.03,31.13,-35,34,41,0
1,0.06,5.06,31.13,-36,34,42,0
1,0.11,17.91,31.13,-35,34,42,0
1,0.11,79.34,31.13,-33,34,45,0
1,0.11,228.25,31.13,-33,34,43,0
1,0.11,-486.46,31.13,-34,35,43,0
1,0.11,-4.96,31.13,-35,35,42,0
1,0.11,160.25,31.13,-35,35,41,0
1,0.11,63.9,31.11,-35,35,42,0
1,0.11,31.71,31.11,-34,35,42,0
1,0.11,-24.14,31.11,-34,35,42,0
1,0.11,11.19,31.11,-34,35,42,0
1,0.11,-8.07,31.13,-34,35,42,0
1,0.11,-232.39,31.13,-33,35,42,0
1,0.11,128.92,31.13,-35,35,42,0
1,0.11,234.28,31.13,-35,35,42,0
1,0.11,40.82,31.11,-35,35,42,0
1,0.11,-37.55,31.11,-35,35,42,0
1,0.11,4.07,31.11,-35,35,42,0
1,0.11,-59.31,31.11,-35,35,42,0
1,0.11,-1.72,31.09,-35,35,42,0
1,0.11,3.89,31.09,-35,35,42,0
1,0.11,3.3,31.09,-35,35,42,0
1,0.11,-4.88,31.09,-35,35,42,0
1,0.11,-5.06,31.09,-34,35,42,0
1,0.11,8.47,31.09,-35,35,42,0
1,0.11,-11.86,31.09,-35,35,42,0
1,0.11,27.11,31.09,-34,35,42,0
1,0.11,-6.76,31.09,-35,35,42,0
1,0.11,-3.32,31.09,-35,35,42,0
1,0.11,-3.01,31.09,-35,35,42,0
1,0.11,-1.11,31.09,-35,35,42,0
1,0.11,11.32,31.09,-35,35,42,0
1,0.11,-0.2,31.09,-35,35,42,0
1,0.11,-5.47,31.09,-34,35,42,0
1,0.11,2.59,31.09,-35,35,42,0
1,0.11,-10.5,31.09,-35,35,42,0
1,0.11,2.38,31.09,-35,35,42,0
1,0.11,-4.15,31.09,-35,35,42,0
1,0.11,-1.62,31.09,-35,35,42,0
1,0.11,5.67,31.07,-35,35,42,0
1,0.11,9.32,31.07,-34,35,42,0
1,0.11,21.61,31.07,-34,35,42,0
1,0.11,-16.38,31.07,-34,35,42,0
1,0.11,-11.32,31.09,-35,35,42,0
1,0.11,10.85,31.09,-36,35,42,0
1,0.11,-23.86,31.09,-36,35,41,0
1,0.11,-27.05,31.09,-37,35,40,0
1,0.11,-44.57,31.09,-37,35,40,0
1,0.11,-112.12,31.09,-37,34,40,0
1,0.11,113.45,31.09,-39,33,39,0
1,0.11,165.34,31.09,-37,35,40,0
1,0.11,66.92,31.09,-36,34,40,0
1,0.11,-43.11,31.09,-37,35,40,0
1,0.11,41.21,31.09,-38,35,40,0
1,0.11,-827.69,31.09,-36,34,40,0
1,0.11,-60.38,31.07,-37,35,40,0
1,0.11,247.05,31.07,-38,35,39,0
1,0.11,768.85,31.07,-40,35,38,0
1,0.11,-14,31.07,-39,35,38,0
1,0.11,-711.7,31.07,-40,35,37,0
1,0.11,-209.54,31.07,-40,35,37,0
1,0.11,182.8,31.07,-41,35,36,0
1,0.11,300.47,31.07,-42,35,36,0
1,0.11,143.79,31.05,-40,35,37,0
1,0.11,23.61,31.05,-40,36,36,0
1,0.11,54.2,31.05,-42,35,36,0
1,0.11,128.3,31.05,-41,36,36,0
1,0.11,220.34,31.05,-42,35,35,0
1,0.12,-76.67,31.05,-41,34,37,0
1,0.11,-277.36,31.05,-40,35,37,0
1,0.12,-542.71,31.05,-40,35,37,0
1,0.11,193.51,31.03,-40,36,37,0
1,0.11,101.4,31.03,-40,35,37,0
1,0.11,-493.77,31.03,-41,36,36,0
1,0.11,-99.01,31.03,-41,36,36,0
1,0.11,348.3,31.03,-39,37,35,0
1,0.11,116.62,31.03,-41,36,35,0
1,0.11,-79.97,31.03,-41,36,34,0
1,0.11,-97,31.03,-41,36,35,0
1,0.11,50.43,31.03,-41,36,35,0
1,0.12,117.41,31.03,-40,36,36,0
1,0.12,60.8,31.03,-41,36,36,0
1,0.12,-0.15,31.03,-44,35,35,0
1,0.12,-30.26,31.05,-37,38,34,0
1,0.12,-35.65,31.05,-36,37,37,0
1,0.12,34.93,31.05,-40,36,37,0
1,0.12,24.56,31.05,-42,36,35,0
1,0.11,-238.18,31.03,-39,36,32,0
1,0.12,-94.58,31.03,-43,37,33,0
1,0.11,121.57,31.03,-42,37,34,0
1,0.12,38.2,31.03,-42,36,34,0
1,0.12,-23.57,31.03,-43,36,33,0
1,0.11,-70.97,31.03,-43,36,33,0
1,0.12,88.04,31.03,-42,36,34,0
1,0.12,69.61,31.03,-42,36,33,0
1,0.12,2.5,31.01,-43,36,32,0
1,0.11,-3.85,31.01,-42,36,33,0
1,0.11,6.5,31.01,-43,36,33,0
1,0.12,0.48,31.01,-43,36,33,0
1,0.12,7.46,30.99,-43,36,33,0
1,0.12,-31.8,30.99,-43,36,33,0
1,0.12,12.66,30.99,-42,36,33,0
1,0.12,6.38,30.99,-42,36,33,0
1,0.12,13.38,30.99,-43,36,33,0
1,0.12,-7.64,30.99,-42,36,34,0
1,0.12,-7.47,30.99,-43,36,34,0
1,0.12,3.34,30.99,-41,36,33,0
1,0.12,-9.86,30.99,-42,36,34,0
1,0.12,1.03,30.99,-42,36,34,0
1,0.12,52.46,30.99,-42,36,34,0
1,0.12,-6.08,30.99,-42,36,34,0
1,0.12,-96.06,30.97,-42,36,34,0
1,0.12,32.06,30.97,-42,36,34,0
1,0.12,9.45,30.97,-42,36,34,0
1,0.12,-8.27,30.97,-42,36,35,0
1,0.12,-1.47,30.99,-42,36,34,0
1,0.12,8.67,30.99,-42,36,34,0
1,0,-0.03,37.57,50,-40,14,0
1,0.09,5.06,37.57,50,-39,14,0
1,0.16,17.91,37.57,50,-39,14,0
1,0.15,79.34,37.57,50,-39,14,0
1,0.15,228.25,37.57,50,-39,14,0
1,0.15,-486.5,37.57,50,-39,14,0
1,0.15,-5.9,37.57,50,-39,14,0
1,0.16,156.15,37.57,50,-39,15,0
1,0.16,46.78,37.59,50,-39,15,0
1,0.15,4.05,37.59,50,-39,14,0
1,0.16,0.2,37.59,50,-40,15,0
1,0.16,0.94,37.59,50,-39,15,0
1,0.16,4.24,37.59,50,-39,15,0
1,0.16,16.08,37.59,50,-40,15,0
1,0.16,8.05,37.59,50,-39,15,0
1,0.16,-10.8,37.59,50,-39,15,0
1,0.16,20.5,37.61,50,-39,15,0
1,0.16,77.98,37.61,50,-39,15,0
1,0.16,55.53,37.61,50,-39,15,0
1,0.16,-277.42,37.61,50,-39,15,0
1,0.16,-68.67,37.57,50,-39,15,0
1,0.16,44.53,37.57,50,-39,15,0
1,0.17,1.63,37.57,50,-39,15,0
1,0.16,38.1,37.57,50,-39,15,0
1,0.16,-4.95,37.57,50,-40,15,0
1,0.17,43.02,37.57,50,-39,15,0
1,0.17,-11.19,37.57,50,-39,15,0
1,0.17,12.92,37.57,50,-40,16,0
1,0.17,5.69,37.57,50,-40,15,0
1,0.17,-17.15,37.57,50,-39,15,0
1,0.17,15.96,37.57,50,-40,15,0
1,0.17,-24.77,37.57,50,-39,15,0
1,0.17,32.74,37.57,50,-39,15,0
1,0.17,-26.33,37.57,50,-39,15,0
1,0.17,32.39,37.57,50,-39,15,0
1,0.17,-1.15,37.57,50,-39,15,0
1,0.17,12.23,37.55,50,-39,15,0
1,0.17,4.97,37.55,50,-39,15,0
1,0.17,-32.61,37.55,50,-39,15,0
1,0.17,6.87,37.55,50,-39,15,0
1,0.17,-24.74,37.53,50,-39,15,0
1,0.17,25,37.53,50,-39,15,0
1,0.17,-0.49,37.53,50,-39,15,0
1,0.17,33.64,37.53,50,-39,15,0
1,0.17,-10.58,37.5,50,-39,15,0
1,0.17,-28.79,37.5,50,-39,15,0
1,0.17,9.49,37.5,50,-39,15,0
1,0.17,-22.59,37.5,51,-39,14,0
1,0.17,33.75,37.53,51,-39,14,0
1,0.17,-8.22,37.53,50,-39,15,0
1,0.18,1.8,37.53,50,-39,14,0
1,0.17,2.38,37.53,50,-39,15,0
1,0.18,-44.03,37.5,50,-39,15,0
1,0.18,2.95,37.5,50,-39,15,0
1,0.18,-24.54,37.5,50,-39,15,0
1,0.18,28.57,37.5,50,-39,15,0
1,0.18,5.96,37.49,50,-39,15,0
1,0.18,23.32,37.49,50,-39,15,0
1,0.18,-0.3,37.49,50,-39,15,0
1,0.18,-24.95,37.49,50,-39,15,0
1,0.18,-1.93,37.47,50,-39,15,0
1,0.18,-21.2,37.47,50,-39,15,0
1,0.18,25.92,37.47,50,-39,15,0
1,0.18,-5.29,37.47,50,-39,15,0
1,0.18,32.11,37.45,50,-39,15,0
1,0.18,6.78,37.45,50,-39,15,0
1,0.18,-27.28,37.45,50,-39,15,0
1,0.18,9.32,37.45,50,-40,15,0
1,0.18,-29.21,37.45,50,-39,15,0
1,0.18,4.63,37.45,50,-39,16,0
1,0.18,-6.91,37.45,50,-39,16,0
1,0.18,31.76,37.45,49,-39,16,0
1,0.18,-2.4,37.45,49,-40,16,0
1,0.18,-10.28,37.45,49,-39,16,0
1,0.18,15.88,37.45,49,-39,16,0
1,0.18,-31.81,37.45,50,-39,16,0
1,0.18,16.8,37.45,50,-39,16,0
1,0.18,-9.8,37.45,49,-39,16,0
1,0.18,25.72,37.45,50,-39,16,0
1,0.18,0.59,37.45,49,-39,16,0
1,0.18,-24.84,37.43,49,-39,16,0
1,0.19,10.16,37.43,50,-39,16,0
1,0.19,4.68,37.43,50,-39,16,0
1,0.18,14.03,37.43,50,-39,16,0
1,0.18,7.18,37.43,50,-39,16,0
1,0.19,-49.31,37.43,50,-39,16,0
1,0.19,3.2,37.43,50,-39,16,0
1,0.19,-15.06,37.43,50,-39,16,0
1,0.19,30.43,37.43,50,-39,16,0
1,0.19,11.05,37.43,50,-39,16,0
1,0.19,-27.58,37.43,50,-39,16,0
1,0.19,4.22,37.43,50,-39,16,0
1,0.19,-15.88,37.41,50,-39,16,0
1,0.19,15.06,37.41,50,-39,16,0
1,0.19,-0.96,37.41,49,-39,16,0
1,0.19,-7.73,37.41,49,-39,17,0
1,0.19,0.41,37.39,49,-39,16,0
1,0.19,-22.58,37.39,49,-39,17,0
1,0.19,20.96,37.39,49,-39,16,0
1,0.19,-16.6,37.39,50,-39,16,0
1,0.19,27.02,37.39,49,-39,16,0
1,0.19,-4.05,37.39,50,-39,16,0
1,0.19,15.05,37.39,50,-39,16,0
1,0.19,0.26,37.39,50,-39,16,0
1,0.19,-35.89,37.37,50,-39,17,0
1,0.19,8.35,37.37,50,-39,16,0
1,0.19,-7.12,37.37,50,-39,16,0
1,0.19,40.12,37.37,50,-39,16,0
1,0.19,3.27,37.39,50,-39,16,0
1,0.19,-7.93,37.39,50,-39,16,0
1,0.19,5.06,37.39,50,-39,17,0
1,0.19,-36.18,37.39,50,-39,16,0
1,0.19,11.31,37.37,50,-39,16,0
1,0.19,-10.07,37.37,50,-39,17,0
1,0.2,33.99,37.37,50,-39,16,0
1,0.19,13.53,37.37,49,-39,16,0
1,0.2,-29.76,37.34,50,-39,16,0
1,0.19,4.47,37.34,50,-39,16,0
1,0,-0.03,33.55,28,55,-5,0
1,0.2,5.06,33.55,32,55,-8,0
1,0.28,17.91,33.55,30,55,-9,0
1,0.27,79.34,33.55,32,55,-7,0
1,0.27,228.25,33.55,32,55,-8,0
1,0.27,-486.5,33.55,31,55,-7,0
1,0.27,-5.9,33.55,30,55,-5,0
1,0.27,156.15,33.55,30,56,-7,0
1,0.27,46.78,33.57,29,56,-8,0
1,0.27,4.05,33.57,30,56,-6,0
1,0.27,0.16,33.57,30,57,-8,0
1,0.27,0.84,33.57,31,56,-5,0
1,0.27,3.69,33.57,28,56,-5,0
1,0.27,14.59,33.57,29,56,-4,0
1,0.27,14.55,33.57,34,56,-7,0
1,0.28,-13.63,33.57,31,55,-4,0
1,0.27,17.78,33.53,31,55,-1,0
1,0.28,73.44,33.53,31,55,-2,0
1,0.28,106.08,33.53,30,54,-2,0
1,0.28,-214.99,33.53,31,55,-1,0
1,0.28,-37.17,33.53,33,56,0,0
1,0.28,102.22,33.53,29,55,0,0
1,0.28,-26.48,33.53,30,55,-1,0
1,0.28,-34.77,33.53,31,56,-4,0
1,0.28,51.44,33.53,29,56,-2,0
1,0.28,18.79,33.53,29,56,1,0
1,0.29,-43.58,33.53,22,56,8,0
1,0.28,6.81,33.53,30,58,10,0
1,0.28,-127.94,33.53,28,56,10,0
1,0.29,-109.55,33.53,26,53,22,0
1,0.29,105.99,33.53,23,55,18,0
1,0.28,52.74,33.53,31,60,-9,0
1,0.28,147.03,33.55,12,45,-18,0
1,0.28,-75.76,33.55,26,53,-26,0
1,0.28,-100.79,33.55,22,55,-31,0
1,0.27,-213.27,33.55,22,53,-26,0
1,0.26,551.14,33.55,29,54,-25,0
1,0.27,210.81,33.55,31,51,-16,0
1,0.26,-198.65,33.55,31,52,-16,0
1,0.26,-215.47,33.55,32,53,-18,0
1,0.26,47.13,33.59,31,53,-21,0
1,0.27,-57.33,33.59,27,52,-21,0
1,0.27,-4.81,33.59,31,53,-23,0
1,0.27,-41.44,33.59,33,53,-16,0
1,0.27,-36.57,33.53,33,53,-18,0
1,0.27,25.25,33.53,30,52,-18,0
1,0.27,98.09,33.53,32,52,-19,0
1,0.27,-60.94,33.53,31,52,-19,0
1,0.28,55.54,33.43,33,52,-17,0
1,0.27,37.19,33.43,31,52,-14,0
1,0.27,13.15,33.43,31,52,-14,0
1,0.27,122.31,33.43,32,53,-16,0
1,0.27,-44.66,33.37,31,53,-17,0
1,0.27,36.82,33.37,32,53,-18,0
1,0.27,-46.66,33.37,34,51,-18,0
1,0.27,68.05,33.37,35,53,-20,0
1,0.27,-33.03,33.34,32,52,-17,0
1,0.27,27.74,33.34,34,53,-16,0
1,0.27,53.36,33.34,22,53,-12,0
1,0.27,-55.66,33.34,30,54,-16,0
1,0.27,-16,33.33,27,54,-17,0
1,0.27,-18.38,33.33,29,55,-20,0
1,0.27,-42.69,33.33,28,54,-18,0
1,0.27,443.5,33.33,28,54,-17,0
1,0.27,24.06,33.34,29,54,-17,0
1,0.27,14.88,33.34,29,54,-19,0
1,0.27,-76.13,33.34,30,52,-19,0
1,0.27,-168.92,33.34,31,53,-19,0
1,0.27,9.71,33.29,31,54,-20,0
1,0.27,9.09,33.29,29,53,-14,0
1,0.28,72.37,33.29,30,54,-17,0
1,0.27,-236.51,33.29,29,53,-17,0
1,0.27,-64.91,33.31,27,53,-19,0
1,0.27,143.18,33.31,30,52,-22,0
1,0.27,293.8,33.31,31,52,-21,0
1,0.27,-38.03,33.31,30,52,-24,0
1,0.27,2.85,33.33,30,53,-22,0
1,0.27,138.93,33.33,29,52,-23,0
1,0.27,-118.46,33.33,27,52,-24,0
1,0.27,-214.04,33.33,31,53,-23,0
1,0.27,-46.65,33.31,30,52,-21,0
1,0.27,147.08,33.31,33,52,-21,0
1,0.27,232.11,33.31,35,52,-13,0
1,0.27,-233.73,33.31,23,52,-19,0
1,0.26,-525.08,33.27,30,52,-22,0
1,0.26,378.05,33.27,29,51,-22,0
1,0.26,191.21,33.27,30,51,-20,0
1,0.26,-58.7,33.27,34,51,-18,0
1,0.27,-47.06,33.29,35,51,-16,0
1,0.26,214.66,33.29,32,51,-19,0
1,0.27,149.62,33.29,33,52,-18,0
1,0.27,-10.99,33.29,33,52,-19,0
1,0.27,-4.82,33.33,28,52,-24,0
1,0.26,72.54,33.33,31,51,-21,0
1,0.26,-128.93,33.33,31,51,-22,0
1,0.27,114.87,33.33,32,51,-22,0
1,0.27,86.46,33.31,33,50,-22,0
1,0.27,-36.16,33.31,32,50,-23,0
1,0.27,-16.04,33.31,34,50,-21,0
1,0.27,-55.4,33.31,36,50,-19,0
1,0.27,-15.13,33.33,34,50,-22,0
1,0.27,-19.57,33.33,34,49,-21,0
1,0.27,-47.57,33.33,36,50,-19,0
1,0.27,-58.05,33.33,36,49,-17,0
1,0.27,9.8,33.33,36,49,-19,0
1,0.27,93.52,33.33,36,50,-19,0
1,0.27,26.21,33.33,37,50,-19,0
1,0.27,90.08,33.33,36,50,-20,0
1,0.27,-9.95,33.31,35,50,-18,0
1,0.27,-56.36,33.31,34,50,-19,0
1,0.27,-18.53,33.31,36,50,-19,0
1,0.27,85.3,33.31,35,50,-19,0
1,0.27,-36.74,33.29,35,50,-18,0
1,0.27,-16.03,33.29,39,51,-19,0
1,0.27,23.26,33.29,37,51,-17,0
1,0.27,-62.43,33.29,37,51,-15,0
1,0.27,-7.21,33.27,35,51,-15,0
1,0.27,-43.9,33.27,34,51,-16,0
1,0,-0.03,31.13,-40,-21,48,0
1,0.14,5.06,31.13,-41,-21,47,0
1,0.21,17.91,31.13,-41,-21,47,0
1,0.21,79.34,31.13,-40,-22,48,0
1,0.21,228.25,31.13,-40,-22,47,0
1,0.21,-486.45,31.13,-41,-22,47,0
1,0.21,-4.89,31.13,-41,-22,48,0
1,0.21,160.66,31.13,-40,-21,47,0
1,0.21,65.34,31.13,-41,-21,47,0
1,0.21,31.67,31.13,-41,-22,47,0
1,0.22,-22.95,31.13,-40,-22,47,0
1,0.22,16.04,31.13,-41,-22,48,0
1,0.22,78.89,31.13,-41,-21,47,0
1,0.22,153.91,31.13,-41,-22,47,0
1,0.22,55.47,31.13,-41,-21,47,0
1,0.22,8.07,31.13,-41,-21,48,0
1,0.22,-5.07,31.11,-41,-22,47,0
1,0.22,-5.08,31.11,-41,-22,47,0
1,0.22,-8.75,31.11,-41,-22,47,0
1,0.22,-2.33,31.11,-41,-22,47,0
1,0.22,-17.7,31.11,-41,-21,48,0
1,0.22,-42.84,31.11,-42,-22,47,0
1,0.22,-152.49,31.11,-41,-22,47,0
1,0.22,-458.64,31.11,-41,-22,47,0
1,0.22,-381.94,31.11,-41,-22,47,0
1,0.22,-107.84,31.11,-41,-21,48,0
1,0.23,56.43,31.11,-41,-22,47,0
1,0.22,143.95,31.11,-42,-22,47,0
1,0.22,357.47,31.07,-41,-22,47,0
1,0.22,181.34,31.07,-41,-22,47,0
1,0.22,25.21,31.07,-41,-22,47,0
1,0.22,1.96,31.07,-41,-22,47,0
1,0.22,0.25,31.09,-41,-22,47,0
1,0.23,3.77,31.09,-41,-22,47,0
1,0.22,1.06,31.09,-43,-22,46,0
1,0.22,-2.41,31.09,-42,-21,46,0
1,0.22,4.1,31.11,-42,-21,47,0
1,0.22,-19.91,31.11,-40,-21,48,0
1,0.22,-60.22,31.11,-40,-21,48,0
1,0.22,-71.39,31.11,-40,-21,48,0
1,0.22,-93.51,31.09,-40,-21,49,0
1,0.22,201.1,31.09,-42,-21,48,0
1,0.22,129.47,31.09,-39,-22,51,0
1,0.22,5.23,31.09,-39,-21,49,0
1,0.22,29.57,31.05,-39,-21,49,0
1,0.22,-26.41,31.05,-38,-22,48,0
1,0.22,2.53,31.05,-39,-21,49,0
1,0.22,-29.47,31.05,-39,-21,49,0
1,0.22,-12.29,31.07,-38,-21,49,0
1,0.22,18.59,31.07,-39,-21,49,0
1,0.22,-28.39,31.07,-38,-21,51,0
1,0.22,2.22,31.07,-37,-21,51,0
1,0.22,26.22,31.03,-37,-21,51,0
1,0.22,7.11,31.03,-37,-21,51,0
1,0.22,15.06,31.03,-36,-21,51,0
1,0.22,-17.75,31.03,-36,-20,51,0
1,0.22,-4.1,31.05,-36,-21,52,0
1,0.22,4.02,31.05,-36,-20,52,0
1,0.22,6.01,31.05,-36,-20,51,0
1,0.23,-4.55,31.05,-36,-21,51,0
1,0.23,-5.54,30.99,-36,-21,52,0
1,0.23,5.78,30.99,-36,-20,52,0
1,0.23,-1.35,30.99,-36,-21,51,0
1,0.22,0.19,30.99,-36,-20,51,0
1,0.23,-1.44,30.97,-36,-20,51,0
1,0.22,-4.25,30.97,-36,-20,51,0
1,0.23,-2.39,30.97,-36,-20,52,0
1,0.23,-1.6,30.97,-36,-20,52,0
1,0.23,1.16,30.95,-36,-20,51,0
1,0.23,-3.82,30.95,-36,-21,51,0
1,0.23,-0.07,30.95,-36,-21,51,0
1,0.23,0.98,30.95,-36,-20,51,0
1,0.23,2.12,30.95,-36,-21,52,0
1,0.23,1.09,30.95,-36,-20,52,0
1,0.23,-0.95,30.95,-36,-21,51,0
1,0.23,-4.23,30.95,-36,-20,52,0
1,0.23,0.81,30.91,-35,-20,52,0
1,0.23,-4.65,30.91,-35,-20,52,0
1,0.23,0.04,30.91,-36,-21,52,0
1,0.23,2.35,30.91,-35,-20,52,0
1,0.23,-5.95,30.93,-35,-20,52,0
1,0.23,2.36,30.93,-36,-21,52,0
1,0.23,1.49,30.93,-35,-20,52,0
1,0.23,2.76,30.93,-35,-21,52,0
1,0.23,2.1,30.91,-35,-21,51,0
1,0.23,-3.5,30.91,-36,-21,51,0
1,0.23,-3.18,30.91,-36,-20,51,0
1,0.23,-3.06,30.91,-36,-21,52,0
1,0.23,-1.85,30.91,-36,-21,52,0
1,0.23,3.19,30.91,-36,-21,52,0
1,0.23,3.41,30.91,-36,-21,51,0
1,0.23,5.51,30.91,-36,-21,52,0
1,0.23,-1.07,30.89,-35,-21,52,0
1,0.23,-0.69,30.89,-36,-21,52,0
1,0.23,3.79,30.89,-36,-21,52,0
1,0.23,1.55,30.89,-36,-21,51,0
1,0.23,2.43,30.89,-36,-20,51,0
1,0.23,-1.73,30.89,-36,-21,51,0
1,0.23,-1.87,30.89,-36,-21,52,0
1,0.23,-0.39,30.89,-36,-21,52,0
1,0.23,0.3,30.91,-36,-21,52,0
1,0.23,0.85,30.91,-36,-21,52,0
1,0.23,-0.28,30.91,-35,-21,52,0
1,0.23,-1.79,30.91,-35,-21,52,0
1,0.23,-1.71,30.89,-35,-21,52,0
1,0.23,0.87,30.89,-36,-20,52,0
1,0.23,-0.2,30.89,-36,-21,51,0
1,0.23,1.01,30.89,-36,-21,52,0
1,0.24,-0.21,30.91,-36,-21,52,0
1,0.23,-3.86,30.91,-35,-21,52,0
1,0.23,2.47,30.91,-35,-21,52,0
1,0.24,-5.09,30.91,-35,-20,52,0
1,0.23,-3.56,30.89,-36,-20,52,0
1,0.23,-1.8,30.89,-35,-20,52,0
1,0.23,6.24,30.89,-35,-21,52,0
1,0.24,-0.75,30.89,-35,-21,52,0
1,0.24,-2.19,30.89,-35,-21,52,0
1,0.23,7.27,30.89,-36,-21,51,0
1,0,-0.03,29.53,47,42,-14,0
1,0.02,5.06,29.53,44,44,-8,0
1,0.04,17.91,29.53,43,46,-4,0
1,0.04,79.34,29.53,43,47,-4,0
1,0.04,228.25,29.53,43,47,-4,0
1,0.04,-486.42,29.53,44,48,-5,0
1,0.04,-4.78,29.53,44,47,-4,0
1,0.04,161.19,29.53,43,47,-5,0
1,0.04,67.02,29.57,44,47,-5,0
1,0.04,27.54,29.57,45,47,-5,0
1,0.04,-22.57,29.57,37,48,-8,0
1,0.04,18.56,29.57,43,49,-5,0
1,0.04,81.09,29.59,44,47,-6,0
1,0.04,126.34,29.59,43,47,-7,0
1,0.04,23,29.59,43,48,-8,0
1,0.04,23.05,29.59,44,49,-6,0
1,0.04,-180.02,29.65,40,50,-7,0
1,0.04,-230.97,29.65,36,52,-8,0
1,0.04,-31.93,29.65,41,52,-5,0
1,0.04,-29.35,29.65,42,50,-8,0
1,0.04,90.54,29.57,39,49,-8,0
1,0.04,5.97,29.57,41,49,-7,0
1,0.04,-11.51,29.57,39,50,-7,0
1,0.04,-65.28,29.57,41,50,-6,0
1,0.04,25.92,29.49,39,50,-6,0
1,0.04,-46.16,29.49,39,51,-6,0
1,0.04,-52.27,29.49,37,52,-5,0
1,0.04,78.72,29.49,37,52,-5,0
1,0.04,-30.37,29.45,36,51,-6,0
1,0.04,31.76,29.45,35,53,-5,0
1,0.04,119.41,29.45,36,52,-8,0
1,0.04,1.81,29.45,40,51,-4,0
1,0.04,-147.79,29.41,39,51,-5,0
1,0.04,-197.28,29.41,41,50,-5,0
1,0.04,188.48,29.41,41,49,-5,0
1,0.04,100.06,29.41,41,49,-6,0
1,0.03,-329.4,29.35,40,49,-5,0
1,0.04,-378.69,29.35,41,50,-6,0
1,0.03,72.03,29.35,35,50,-5,0
1,0.03,109.66,29.35,38,51,-8,0
1,0.03,101.9,29.37,33,52,-7,0
1,0.03,-12.52,29.37,35,52,-7,0
1,0.03,64.9,29.37,39,52,-7,0
1,0.03,81.09,29.37,37,51,-6,0
1,0.03,-19.37,29.37,38,52,-4,0
1,0.03,-191.96,29.37,46,49,-4,0
1,0.03,-30.47,29.37,46,47,0,0
1,0.03,188.83,29.37,44,50,-7,0
1,0.03,241.78,29.33,36,50,-8,0
1,0.03,284.61,29.33,39,50,-6,0
1,0.03,-138.06,29.33,37,50,-7,0
1,0.03,-404.88,29.33,38,51,-10,0
1,0.03,-7.17,29.35,41,50,-9,0
1,0.03,-276.61,29.35,39,50,-7,0
1,0.03,-242.55,29.35,38,49,-6,0
1,0.03,117.23,29.35,39,50,-9,0
1,0.03,243.19,29.39,40,50,-7,0
1,0.03,83.8,29.39,41,49,-5,0
1,0.03,-58.9,29.39,40,49,-6,0
1,0.03,329,29.39,41,49,-8,0
1,0.03,2.13,29.47,39,49,-7,0
1,0.03,-153.71,29.47,40,49,-7,0
1,0.03,93.05,29.47,41,49,-7,0
1,0.03,41.23,29.47,40,49,-7,0
1,0.03,-113.24,29.41,41,49,-7,0
1,0.03,-80.63,29.41,40,49,-6,0
1,0.03,128.14,29.41,40,49,-7,0
1,0.03,-45.42,29.41,41,49,-7,0
1,0.03,-147.12,29.39,40,49,-7,0
1,0.03,116.09,29.39,40,49,-7,0
1,0.04,149.32,29.39,40,49,-6,0
1,0.03,22.6,29.39,41,49,-8,0
1,0.03,-52.79,29.37,41,49,-8,0
1,0.03,41.56,29.37,41,49,-8,0
1,0.03,80.57,29.37,40,49,-9,0
1,0.03,72.39,29.37,41,49,-8,0
1,0.03,-26.3,29.35,41,49,-8,0
1,0.03,36.92,29.35,41,49,-8,0
1,0.03,-8.23,29.35,41,49,-8,0
1,0.03,44.66,29.35,41,49,-9,0
1,0.03,20.59,29.37,41,49,-8,0
1,0.03,-47.87,29.37,41,49,-8,0
1,0.04,-48.81,29.37,41,49,-8,0
1,0.03,48.22,29.37,41,49,-9,0
1,0.03,13.12,29.37,41,49,-8,0
1,0.03,-14.06,29.37,41,49,-9,0
1,0.03,113.17,29.37,41,49,-9,0
1,0.03,-61.57,29.37,41,49,-9,0
1,0.03,-21.58,29.35,40,49,-9,0
1,0.03,60.46,29.35,41,49,-8,0
1,0.03,1.99,29.35,41,48,-8,0
1,0.03,-4.54,29.35,41,49,-9,0
1,0.03,40.62,29.33,40,49,-8,0
1,0.03,-25.73,29.33,41,49,-8,0
1,0.03,11.05,29.33,41,48,-9,0
1,0.03,-25.84,29.33,41,49,-9,0
1,0.03,85.68,29.31,41,48,-9,0
1,0.03,18.41,29.31,41,49,-8,0
1,0.03,8.54,29.31,41,48,-8,0
1,0.03,1.65,29.31,41,48,-9,0
1,0.03,25.42,29.33,41,49,-9,0
1,0.03,-21.66,29.33,41,49,-8,0
1,0.03,2.35,29.33,42,48,-9,0
1,0.03,-0.27,29.33,41,49,-8,0
1,0.03,-9.64,29.31,41,48,-9,0
1,0.03,4.01,29.31,41,49,-8,0
1,0.03,1.98,29.31,41,49,-9,0
1,0.03,0.09,29.31,41,49,-9,0
1,0.03,0.2,29.31,41,49,-8,0
1,0.03,-33.09,29.31,41,49,-8,0
1,0.03,9.1,29.31,41,49,-9,0
1,0.03,-9.14,29.31,41,49,-9,0
1,0.03,8.84,29.33,41,49,-8,0
1,0.03,6.84,29.33,41,49,-9,0
1,0.03,-9.32,29.33,41,49,-9,0
1,0.03,-12.91,29.33,41,48,-9,0
1,0.03,0.13,29.33,44,47,-8,0
1,0.03,-22.29,29.33,42,48,-10,0
1,0,-0.03,28.83,8,-1,63,0
1,0.07,5.06,28.83,9,-2,66,0
1,0.12,17.91,28.83,8,-2,63,0
1,0.12,79.34,28.83,20,-1,59,0
1,0.12,228.25,28.83,17,-2,63,0
1,0.12,-486.5,28.83,14,-2,63,0
1,0.12,-5.9,28.83,15,-2,63,0
1,0.12,156.15,28.83,16,-3,61,0
1,0.12,46.78,28.77,17,-1,64,0
1,0.12,4.05,28.77,15,-2,63,0
1,0.12,0.12,28.77,16,-1,61,0
1,0.12,0.66,28.77,12,-2,62,0
1,0.12,2.66,28.77,7,-2,64,0
1,0.12,11.48,28.77,4,-2,61,0
1,0.13,20.75,28.77,7,0,64,0
1,0.12,-22.13,28.77,5,-2,64,0
1,0.12,28.64,28.73,5,-3,65,0
1,0.13,42.83,28.73,7,-2,64,0
1,0.12,25.9,28.73,5,-3,64,0
1,0.13,-166.29,28.73,9,-3,63,0
1,0.13,11.85,28.75,9,-2,63,0
1,0.12,32.16,28.75,10,-3,63,0
1,0.13,13.52,28.75,12,-2,63,0
1,0.13,6.76,28.75,11,-2,63,0
1,0.13,6.3,28.73,18,-2,62,0
1,0.13,1.04,28.73,5,-5,67,0
1,0.13,-1.44,28.73,15,-4,65,0
1,0.13,-7.96,28.73,17,-3,64,0
1,0.13,27.95,28.75,16,-1,60,0
1,0.13,84.74,28.75,11,-1,63,0
1,0.13,-38.31,28.75,9,-3,63,0
1,0.13,50.72,28.75,12,-2,64,0
1,0.13,-96.01,28.73,12,-3,64,0
1,0.13,-46.13,28.73,13,-3,64,0
1,0.13,62.62,28.73,15,-1,62,0
1,0.13,-16.32,28.73,13,-1,66,0
1,0.13,7.43,28.75,12,-2,61,0
1,0.13,14.91,28.75,12,-3,62,0
1,0.13,19.09,28.75,8,-4,64,0
1,0.13,42.24,28.75,9,-1,65,0
1,0.13,-19.55,28.75,10,-3,63,0
1,0.13,-89.75,28.75,10,-2,64,0
1,0.12,-19.46,28.75,11,-2,64,0
1,0.13,57.42,28.75,10,-2,63,0
1,0.13,-13.06,28.73,12,-1,62,0
1,0.13,-18.42,28.73,12,-4,59,0
1,0.13,5.22,28.73,15,-1,62,0
1,0.13,13.92,28.73,14,-2,62,0
1,0.13,-15.85,28.71,13,-3,63,0
1,0.13,6.93,28.71,10,-4,64,0
1,0.13,32.51,28.71,10,-2,61,0
1,0.13,-17.37,28.71,10,-3,64,0
1,0.13,-6.46,28.71,10,-3,63,0
1,0.13,-18.71,28.71,11,-2,63,0
1,0.13,49.05,28.71,10,-3,63,0
1,0.13,-10.35,28.71,12,-1,63,0
1,0.13,-21.42,28.71,13,-3,63,0
1,0.13,-4.34,28.71,9,-5,64,0
1,0.13,-6.76,28.71,16,-1,68,0
1,0.13,7.67,28.71,9,-2,62,0
1,0.13,14.46,28.69,10,-2,63,0
1,0.13,-1.03,28.69,10,-3,63,0
1,0.13,12.82,28.69,10,-2,63,0
1,0.13,21.48,28.69,12,-2,65,0
1,0.13,15.53,28.69,13,-3,64,0
1,0.13,-16.1,28.69,12,-3,64,0
1,0.13,-6.21,28.69,7,-2,62,0
1,0.13,28.83,28.69,2,-2,64,0
1,0.13,-3.41,28.69,4,0,62,0
1,0.13,-55.74,28.69,5,-1,63,0
1,0.13,25.49,28.69,8,-1,63,0
1,0.13,36.13,28.69,9,-1,64,0
1,0.13,54.89,28.67,9,-3,65,0
1,0.13,-16.41,28.67,6,-3,64,0
1,0.13,-79.16,28.67,4,-3,65,0
1,0.13,-25.26,28.67,7,-2,64,0
1,0.13,-58.35,28.67,7,-3,64,0
1,0.13,-3.82,28.67,7,-3,64,0
1,0.13,38.17,28.67,8,-2,64,0
1,0.13,4.89,28.67,7,-2,63,0
1,0.13,6.4,28.65,7,-2,63,0
1,0.13,13.53,28.65,8,-3,64,0
1,0.13,-10.17,28.65,7,-2,63,0
1,0.13,11.68,28.65,8,-3,64,0
1,0.13,10.75,28.65,8,-2,64,0
1,0.13,-7.35,28.65,8,-3,64,0
1,0.13,8.11,28.65,6,-3,64,0
1,0.13,0,28.65,11,-1,62,0
1,0.13,-5.71,28.65,7,-4,65,0
1,0.13,0.13,28.65,11,-3,61,0
1,0.13,-18.82,28.65,8,0,63,0
1,0.13,16.85,28.65,9,0,63,0
1,0.13,82.4,28.61,9,0,62,0
1,0.13,-1.12,28.61,5,-1,63,0
1,0.13,-14.2,28.61,5,-1,62,0
1,0.13,39.26,28.61,9,-1,64,0
1,0.13,-36.27,28.65,11,-2,63,0
1,0.13,-91.99,28.65,11,-2,64,0
1,0.13,-14.37,28.65,11,-2,63,0
1,0.13,20.84,28.65,10,-2,64,0
1,0.13,-12.11,28.63,10,-2,63,0
1,0.13,-5.61,28.63,10,-2,64,0
1,0.13,18.65,28.63,11,-2,65,0
1,0.13,2.11,28.63,12,-4,63,0
1,0.13,0.68,28.61,11,-5,66,0
1,0.13,10.24,28.61,9,-5,63,0
1,0.13,-22.92,28.61,12,0,62,0
1,0.13,8.78,28.61,8,-1,64,0
1,0.13,23.06,28.63,-8,-1,64,0
1,0.13,13.87,28.63,-10,-2,64,0
1,0.13,-22.26,28.63,-11,-3,65,0
1,0.13,-48.39,28.63,-8,0,64,0
1,0.13,27.13,28.61,-9,-2,64,0
1,0.13,41.97,28.61,-10,-1,60,0
1,0.13,-29.93,28.61,-3,-3,64,0
1,0.13,0.66,28.61,-8,-3,64,0
1,0.13,6.45,28.63,-10,-3,65,0
1,0.13,19.47,28.63,-11,-2,64,0
1,0,-0.03,29.89,23,-22,56,2
1,0.13,5.06,29.89,23,-22,56,2
1,0.2,17.91,29.89,23,-22,57,2
1,0.2,79.34,29.89,23,-22,57,2
1,0.2,228.25,29.89,23,-22,57,2
1,0.2,-486.5,29.89,23,-22,56,2
1,0.2,-5.9,29.89,23,-22,57,2
1,0.2,156.15,29.89,23,-22,56,2
1,0.2,46.78,29.87,24,-22,57,2
1,0.2,4.05,29.87,23,-21,57,2
1,0.2,0.17,29.87,23,-22,56,2
1,0.2,0.86,29.87,23,-21,57,2
1,0.2,3.82,29.85,23,-22,56,2
1,0.2,14.88,29.85,23,-22,56,2
1,0.2,12.35,29.85,24,-22,56,2
1,0.2,-12.66,29.85,23,-22,56,2
1,0.2,16.71,29.87,24,-22,56,2
1,0.2,67.6,29.87,24,-22,57,2
1,0.2,48.23,29.87,23,-22,57,2
1,0.2,-264.8,29.87,23,-22,56,2
1,0.2,-9.66,29.85,23,-21,56,2
1,0.2,28.54,29.85,23,-22,57,2
1,0.2,20.49,29.85,23,-21,56,2
1,0.2,3.34,29.85,24,-22,57,2
1,0.2,4.41,29.83,24,-22,56,2
1,0.21,4.84,29.83,23,-22,57,2
1,0.21,0.54,29.83,24,-22,56,2
1,0.2,4.08,29.83,23,-22,56,2
1,0.2,2.92,29.83,23,-22,56,2
1,0.2,6.33,29.83,23,-22,56,2
1,0.2,6.96,29.83,23,-21,56,2
1,0.2,-5.91,29.83,23,-22,56,2
1,0.2,-1.16,29.83,23,-22,56,2
1,0.2,1.52,29.83,23,-22,56,2
1,0.2,-12.16,29.83,24,-21,57,2
1,0.2,1.7,29.83,23,-22,56,2
1,0.2,1.19,29.81,23,-22,56,2
1,0.2,-0.15,29.81,23,-21,56,2
1,0.2,3.89,29.81,24,-22,56,2
1,0.2,0.77,29.81,23,-22,56,2
1,0.21,3.08,29.79,23,-22,57,2
1,0.2,2.94,29.79,23,-22,57,2
1,0.2,-8.26,29.79,24,-22,56,2
1,0.21,-3.59,29.79,24,-22,57,2
1,0.2,1.68,29.79,23,-21,56,2
1,0.21,-2.38,29.79,24,-21,56,2
1,0.2,11.78,29.79,24,-21,56,2
1,0.2,-2.28,29.79,24,-22,56,2
1,0.21,-26.94,29.81,24,-22,56,2
1,0.2,9.02,29.81,24,-22,56,2
1,0.2,-11.49,29.81,24,-22,56,2
1,0.2,7.4,29.81,24,-22,56,2
1,0.2,7.35,29.79,24,-21,56,2
1,0.2,-4.57,29.79,24,-22,56,2
1,0.2,-0.71,29.79,24,-21,56,2
