Subject,eda,bvp,temp,x,y,z,emotion
1,0,-0.03,31.63,-13,-18,62,0
1,0.04,5.06,31.63,-15,-18,62,0
1,0.08,17.91,31.63,-14,-17,62,0
1,0.08,79.34,31.63,-16,-17,60,0
1,0.08,228.25,31.63,3,-12,63,0
1,0.08,-486.47,31.63,9,-3,72,0
1,0.08,-5.02,31.63,13,-2,69,0
1,0.09,160.09,31.63,4,-8,66,0
1,0.09,63.4,31.61,1,-9,65,0
1,0.09,35.3,31.61,3,-9,65,0
1,0.08,-22.52,31.61,1,-10,64,0
1,0.09,10.78,31.61,0,-10,64,0
1,0.08,79.85,31.59,-1,-10,64,0
1,0.09,157.88,31.59,-1,-10,64,0
1,0.09,61.42,31.59,0,-10,64,0
1,0.08,3.83,31.59,-1,-10,65,0
1,0.09,-3.45,31.57,4,-11,63,0
1,0.08,-7.97,31.57,0,-11,64,0
1,0.09,-12.42,31.57,-1,-11,64,0
1,0.09,-27.72,31.57,-1,-11,64,0
1,0.09,-116.2,31.57,-2,-11,64,0
1,0.09,-391.69,31.57,-3,-11,63,0
1,0.08,-67.77,31.57,-2,-11,64,0
1,0.08,32.32,31.57,-1,-13,63,0
1,0.08,55.27,31.55,-2,-11,64,0
1,0.09,16.29,31.55,-2,-11,64,0
1,0.09,-10.43,31.55,-1,-11,64,0
1,0.09,19.7,31.55,-2,-11,64,0
1,0.08,-35.76,31.51,-3,-11,64,0
1,0.09,60.46,31.51,-3,-12,63,0
1,0.08,38.33,31.51,-3,-12,64,0
1,0.08,4.61,31.51,-3,-12,64,0
1,0.08,22.61,31.49,-3,-12,64,0
1,0.08,-10.86,31.49,-3,-12,63,0
1,0.08,26.54,31.49,-3,-12,64,0
1,0.08,20.89,31.49,-2,-12,64,0
1,0.08,-18.3,31.51,-3,-12,64,0
1,0.09,14.75,31.51,-2,-12,63,0
1,0.08,-15.46,31.51,-2,-11,64,0
1,0.08,-21.16,31.51,-3,-12,64,0
1,0.08,22.43,31.49,-3,-12,63,0
1,0.08,-22.65,31.49,-3,-12,64,0
1,0.09,26.16,31.49,-3,-12,64,0
1,0.08,32.36,31.49,-2,-12,64,0
1,0.08,-48.79,31.47,-2,-12,64,0
1,0.08,36.69,31.47,-3,-12,63,0
1,0.08,-9.83,31.47,-3,-12,64,0
1,0.09,9.23,31.47,-3,-12,64,0
1,0.08,10.65,31.47,-3,-12,65,0
1,0.08,-48.85,31.47,-2,-12,65,0
1,0.08,39.32,31.47,-3,-12,64,0
1,0.08,16.22,31.47,-3,-12,64,0
1,0.08,-4.09,31.45,-4,-12,64,0
1,0.08,-42.65,31.45,-3,-12,64,0
1,0.08,-1.65,31.45,-2,-12,63,0
1,0.08,32.35,31.45,-2,-12,64,0
1,0,-0.03,27.11,22,43,41,1
1,0.2,5.06,27.11,23,43,40,1
1,0.3,17.91,27.11,22,43,40,1
1,0.3,79.34,27.11,22,43,41,1
1,0.3,228.25,27.11,23,44,41,1
1,0.3,-486.5,27.11,22,43,41,1
1,0.3,-5.9,27.11,22,43,41,1
1,0.3,156.15,27.11,22,43,42,1
1,0.3,46.78,27.11,21,43,40,1
1,0.3,4.05,27.11,22,43,42,1
1,0.3,0.18,27.11,20,42,42,1
1,0.3,0.9,27.11,22,43,41,1
1,0.3,4,27.09,22,43,41,1
1,0.3,15.41,27.09,22,43,41,1
1,0.3,10.25,27.09,22,43,41,1
1,0.3,-14.03,27.09,21,43,41,1
1,0.3,13.49,27.09,22,43,41,1
1,0.3,50.54,27.09,22,43,42,1
1,0.3,-13.1,27.09,22,43,41,1
1,0.3,-100.26,27.09,22,43,41,1
1,0.3,19.23,27.09,21,43,41,1
1,0.3,8.59,27.09,22,43,42,1
1,0.3,26.01,27.09,21,43,42,1
1,0.3,16.23,27.09,22,43,42,1
1,0.3,-14.43,27.07,22,43,41,1
1,0.3,11.58,27.07,24,44,39,1
1,0.3,4.49,27.07,23,45,39,1
1,0.3,-13.62,27.07,24,44,41,1
1,0.3,9.02,27.07,21,43,40,1
1,0.3,5.57,27.07,22,43,40,1
1,0.3,-12.34,27.07,22,43,40,1
1,0.3,16.31,27.07,20,43,40,1
1,0.3,9.4,27.05,23,43,40,1
1,0.3,-30.58,27.05,24,43,40,1
1,0.3,9.02,27.05,23,44,40,1
1,0.3,18.39,27.05,23,43,41,1
1,0.3,-21.19,27.05,22,43,39,1
1,0.3,-7.99,27.05,22,43,40,1
1,0.3,3.07,27.05,23,44,39,1
1,0.31,13,27.05,24,44,40,1
1,0.3,15.48,27.03,22,43,40,1
1,0.3,0.56,27.03,21,43,41,1
1,0.3,-16.66,27.03,22,44,39,1
1,0.3,3.63,27.03,22,43,41,1
1,0.3,-8.21,27.03,22,43,40,1
1,0.3,-16.19,27.03,22,43,40,1
1,0.3,11.16,27.03,23,44,39,1
1,0.3,-4,27.03,21,43,41,1
1,0.3,-11.19,27.05,23,44,40,1
1,0.3,22.66,27.05,23,44,40,1
1,0.3,8.69,27.05,22,44,40,1
1,0.3,-9.78,27.05,22,43,39,1
1,0.3,7.22,27.03,22,44,40,1
1,0.3,0.06,27.03,23,43,38,1
1,0.3,-13.27,27.03,23,44,37,1
1,0.3,-9.29,27.03,23,45,40,1
1,0,-0.03,31.03,72,11,28,0
1,0.09,5.06,31.03,66,-51,54,0
1,0.14,17.91,31.03,30,-18,44,0
1,0.14,79.34,31.03,-24,-77,12,0
1,0.15,228.25,31.03,9,-22,54,0
1,0.19,-486.42,31.03,2,-7,64,0
1,0.19,-6.01,31.03,6,7,72,0
1,0.19,154.76,31.03,39,2,69,0
1,0.18,32.66,31.13,79,24,36,0
1,0.17,-16.04,31.13,45,8,48,0
1,0.17,-29.38,31.13,23,8,55,0
1,0.16,-9.28,31.13,32,9,59,0
1,0.16,-5.46,31.11,26,8,60,0
1,0.16,2.31,31.11,25,9,59,0
1,0.15,8.32,31.11,31,12,55,0
1,0.15,18.72,31.11,21,7,60,0
1,0.14,15.08,31.05,19,8,61,0
1,0.15,-63.81,31.05,19,8,62,0
1,0.15,-60.33,31.05,19,9,59,0
1,0.14,-1.21,31.05,24,12,55,0
1,0.14,-74.34,31.11,27,14,52,0
1,0.14,209.16,31.11,29,12,57,0
1,0.14,11.51,31.11,50,7,57,0
1,0.14,-41.12,31.11,73,11,62,0
1,0.14,30.9,31.17,27,12,62,0
1,0.15,65.97,31.17,9,11,64,0
1,0.14,-105.74,31.17,13,6,59,0
1,0.14,40.38,31.17,4,8,66,0
1,0.14,-155.78,31.23,5,10,63,0
1,0.14,108.79,31.23,7,10,62,0
1,0.14,185.57,31.23,6,11,62,0
1,0.13,74.97,31.23,13,11,62,0
1,0.13,-38.17,31.05,8,10,65,0
1,0.13,-257.05,31.05,6,9,63,0
1,0.13,168.09,31.05,5,9,64,0
1,0.13,5.9,31.05,6,9,63,0
1,0.13,-102.95,30.95,6,8,64,0
1,0.13,-34.4,30.95,7,6,66,0
1,0.13,20.12,30.95,7,7,64,0
1,0.12,267.68,30.95,6,7,64,0
1,0.13,-40.2,31.25,6,7,64,0
1,0.13,-10.99,31.25,5,5,63,0
1,0.13,-89.37,31.25,5,6,64,0
1,0.13,-123.25,31.25,6,5,64,0
1,0.13,47.51,31.37,5,6,64,0
1,0.13,20.87,31.37,7,7,63,0
1,0.13,101.39,31.37,8,7,63,0
1,0.13,24.31,31.37,7,6,63,0
1,0.13,23.38,31.43,10,7,64,0
1,0.13,-28.01,31.43,6,7,64,0
1,0.13,161.04,31.43,5,6,64,0
1,0.13,22.71,31.43,5,7,63,0
1,0.13,-355.41,31.49,4,6,64,0
1,0.12,-180.21,31.49,2,7,64,0
1,0.12,212.71,31.49,1,8,63,0
1,0.12,117.33,31.49,0,8,64,0
1,0,-0.03,26.97,33,23,50,0
1,0.21,5.06,26.97,33,24,50,0
1,0.29,17.91,26.97,32,25,50,0
1,0.28,79.34,26.97,32,25,49,0
1,0.29,228.25,26.97,32,25,50,0
1,0.28,-486.5,26.97,30,25,50,0
1,0.28,-5.9,26.97,30,24,49,0
1,0.28,156.15,26.97,34,29,45,0
1,0.29,46.78,26.97,40,24,48,0
1,0.29,4.05,26.97,30,26,45,0
1,0.28,0.13,26.97,35,25,48,0
1,0.29,0.72,26.97,32,26,50,0
1,0.29,3.13,26.99,30,29,51,0
1,0.29,12.74,26.99,30,28,49,0
1,0.29,17.69,26.99,25,29,50,0
1,0.29,-13.54,26.99,25,27,50,0
1,0.29,11.85,26.99,29,27,48,0
1,0.29,60.13,26.99,41,30,40,0
1,0.29,98.94,26.99,42,37,27,0
1,0.28,-205.73,26.99,50,38,17,0
1,0.28,-94.84,26.97,46,38,15,0
1,0.28,-70.41,26.97,51,34,21,0
1,0.28,44.61,26.97,48,34,23,0
1,0.27,138.7,26.97,54,33,32,0
1,0.28,118.16,27.01,45,32,31,0
1,0.27,-1.8,27.01,48,34,29,0
1,0.27,-14.09,27.01,50,33,34,0
1,0.27,-5.64,27.01,51,34,27,0
1,0.27,-17.04,26.97,46,34,22,0
1,0.27,-33.42,26.97,50,34,23,0
1,0.27,-11.09,26.97,51,34,23,0
1,0.27,0.34,26.97,51,34,23,0
1,0.27,15.1,26.99,53,34,24,0
1,0.27,6.07,26.99,50,34,23,0
1,0.27,6.32,26.99,54,33,23,0
1,0.27,7.46,26.99,50,34,19,0
1,0.28,-6.84,26.97,51,34,19,0
1,0.27,-6.4,26.97,50,34,19,0
1,0.27,-10.94,26.97,52,34,19,0
1,0.27,9.12,26.97,51,34,20,0
1,0.27,9.23,26.97,47,34,19,0
1,0.27,-3.2,26.97,49,34,20,0
1,0.28,-12.92,26.97,53,33,23,0
1,0.27,22.14,26.97,51,33,22,0
1,0.28,36.07,26.97,51,33,22,0
1,0.27,-11.05,26.97,51,34,20,0
1,0.28,-0.15,26.97,50,34,22,0
1,0.27,1.84,26.97,55,33,23,0
1,0.28,-4.98,26.97,52,33,22,0
1,0.27,0.7,26.97,51,33,23,0
1,0.27,-9.95,26.97,51,33,21,0
1,0.27,6.53,26.97,42,32,23,0
1,0.27,-1.48,26.95,52,32,26,0
1,0.27,-4.66,26.95,53,32,27,0
1,0.27,7.66,26.95,47,32,23,0
1,0.27,2.54,26.95,51,32,24,0
1,0,-0.03,30.65,-34,-34,45,0
1,0.02,5.06,30.65,-35,-34,45,0
1,0.05,17.91,30.65,-35,-34,45,0
1,0.04,79.34,30.65,-34,-33,45,0
1,0.04,228.25,30.65,-34,-34,44,0
1,0.05,-486.5,30.65,-34,-34,45,0
1,0.05,-5.9,30.65,-35,-34,45,0
1,0.05,156.15,30.65,-35,-34,45,0
1,0.04,46.78,30.63,-34,-34,45,0
1,0.04,4.05,30.63,-33,-33,46,0
1,0.05,0.16,30.63,-35,-33,45,0
1,0.05,0.85,30.63,-35,-33,45,0
1,0.05,3.75,30.61,-35,-34,45,0
1,0.05,14.72,30.61,-35,-33,45,0
1,0.05,13.63,30.61,-35,-34,45,0
1,0.05,-13.9,30.61,-35,-33,45,0
1,0.05,16.74,30.59,-35,-33,45,0
1,0.05,68.02,30.59,-35,-34,45,0
1,0.05,53.78,30.59,-35,-34,45,0
1,0.05,-271.96,30.59,-35,-33,45,0
1,0.05,-20.27,30.57,-35,-33,45,0
1,0.05,29.45,30.57,-35,-33,45,0
1,0.05,33.27,30.57,-34,-34,45,0
1,0.05,24.06,30.57,-35,-33,45,0
1,0.04,-3.93,30.57,-36,-33,45,0
1,0.05,11.8,30.57,-35,-34,45,0
1,0.05,10.99,30.57,-35,-33,45,0
1,0.05,-23.35,30.57,-34,-34,46,0
1,0.05,11.13,30.53,-34,-34,46,0
1,0.05,20.12,30.53,-35,-34,46,0
1,0.05,19.03,30.53,-34,-33,46,0
1,0.05,-27.8,30.53,-35,-34,45,0
1,0.05,-35.67,30.51,-36,-34,44,0
1,0.05,-54.91,30.51,-34,-34,45,0
1,0.05,-11.77,30.51,-35,-33,45,0
1,0.05,-6.1,30.51,-35,-33,45,0
1,0.05,75.83,30.49,-35,-33,45,0
1,0.05,19.81,30.49,-35,-33,44,0
1,0.04,-10.68,30.49,-35,-33,45,0
1,0.04,-32.5,30.49,-35,-34,45,0
1,0.04,12.83,30.47,-35,-34,45,0
1,0.04,7.02,30.47,-35,-33,44,0
1,0.05,-24.41,30.47,-34,-33,45,0
1,0.05,14.03,30.47,-36,-34,44,0
1,0.05,-0.22,30.47,-35,-33,45,0
1,0.04,-6.34,30.47,-35,-34,45,0
1,0.04,10.81,30.47,-35,-33,45,0
1,0.05,-1.19,30.47,-35,-34,45,0
1,0.04,-34.24,30.43,-35,-34,44,0
1,0.05,15.32,30.43,-35,-33,45,0
1,0.04,-6.69,30.43,-35,-33,45,0
1,0.05,-6.35,30.43,-35,-33,45,0
1,0.04,16.36,30.41,-35,-33,45,0
1,0.04,-0.63,30.41,-35,-32,46,0
1,0.05,8.76,30.41,-35,-35,46,0
1,0.04,19.55,30.41,-29,-35,45,0
1,0,-0.03,33.49,-20,-17,56,0
1,0.16,5.06,33.49,-24,-17,61,0
1,0.23,17.91,33.49,-26,-15,59,0
1,0.22,79.34,33.49,-26,-13,61,0
1,0.22,228.25,33.49,-27,-15,58,0
1,0.23,-486.48,33.49,-22,-15,58,0
1,0.23,-5.1,33.49,-24,-14,62,0
1,0.23,159.69,33.49,-23,-13,60,0
1,0.23,62.15,33.59,-25,-14,59,0
1,0.23,38.37,33.59,-25,-13,59,0
1,0.23,-26.09,33.59,-25,-14,59,0
1,0.23,9.92,33.59,-26,-14,59,0
1,0.23,71.13,33.55,-25,-14,59,0
1,0.23,153.24,33.55,-25,-14,59,0
1,0.23,65.77,33.55,-25,-14,59,0
1,0.23,8.93,33.55,-26,-14,59,0
1,0.23,-9.88,33.5,-25,-14,59,0
1,0.23,-19.43,33.5,-25,-14,59,0
1,0.23,-94.83,33.5,-25,-14,59,0
1,0.23,-328.33,33.5,-25,-14,59,0
1,0.23,-105.01,33.49,-24,-14,59,0
1,0.23,18.73,33.49,-25,-14,59,0
1,0.23,32.98,33.49,-25,-14,59,0
1,0.23,23.65,33.49,-25,-14,59,0
1,0.23,18.05,33.49,-25,-14,59,0
1,0.23,10.09,33.49,-25,-14,59,0
1,0.23,11.29,33.49,-25,-14,59,0
1,0.23,7.27,33.49,-25,-14,59,0
1,0.23,8.44,33.49,-24,-14,59,0
1,0.23,7.77,33.49,-25,-14,59,0
1,0.23,5.03,33.49,-25,-14,59,0
1,0.23,3.62,33.49,-25,-13,60,0
1,0.23,5.16,33.47,-25,-14,59,0
1,0.23,5.69,33.47,-25,-14,59,0
1,0.23,2.1,33.47,-25,-14,59,0
1,0.23,0.98,33.47,-25,-14,59,0
1,0.23,2.38,33.45,-25,-14,59,0
1,0.23,3.85,33.45,-25,-14,59,0
1,0.23,2.71,33.45,-24,-14,59,0
1,0.23,3.21,33.45,-25,-14,59,0
1,0.23,-3.08,33.45,-26,-13,58,0
1,0.23,2.32,33.45,-24,-14,60,0
1,0.23,1.79,33.45,-23,-14,59,0
1,0.23,-0.71,33.45,-23,-14,60,0
1,0.23,-2.07,33.43,-24,-13,60,0
1,0.23,2.28,33.43,-23,-13,60,0
1,0.23,-1.15,33.43,-23,-13,59,0
1,0.23,6.16,33.43,-23,-13,60,0
1,0.23,0.3,33.43,-23,-14,60,0
1,0.23,-3.57,33.43,-23,-14,60,0
1,0.23,4.85,33.43,-23,-14,60,0
1,0.23,-0.41,33.43,-23,-13,60,0
1,0.23,-2.35,33.41,-23,-14,60,0
1,0.23,6.72,33.41,-23,-13,60,0
1,0.23,1.48,33.41,-23,-14,60,0
1,0.23,-1.69,33.41,-22,-14,60,0
1,0,-0.03,27.95,18,29,54,0
1,0.24,5.06,27.95,18,29,54,0
1,0.34,17.91,27.95,17,29,54,0
1,0.33,79.34,27.95,20,29,53,0
1,0.33,228.25,27.95,18,29,54,0
1,0.34,-486.5,27.95,18,29,55,0
1,0.34,-5.9,27.95,18,29,54,0
1,0.33,156.15,27.95,17,29,54,0
1,0.34,46.78,27.95,17,29,54,0
1,0.34,4.05,27.95,16,29,54,0
1,0.34,0.17,27.95,17,29,54,0
1,0.34,0.85,27.95,17,29,54,0
1,0.34,3.75,27.95,17,29,54,0
1,0.34,14.69,27.95,20,29,55,0
1,0.34,12.88,27.95,22,29,51,0
1,0.34,-14.66,27.95,34,33,42,0
1,0.33,16.53,27.93,34,34,43,0
1,0.33,71,27.93,32,33,43,0
1,0.33,106.97,27.93,30,32,44,0
1,0.33,-3.21,27.93,38,33,40,0
1,0.33,-269.74,27.93,34,32,41,0
1,0.33,-26.35,27.93,36,31,42,0
1,0.33,35.56,27.93,37,32,41,0
1,0.33,21.61,27.93,36,32,42,0
1,0.33,-15.96,27.91,38,33,40,0
1,0.33,-34.31,27.91,40,33,40,0
1,0.33,-13.06,27.91,37,33,42,0
1,0.33,22.06,27.91,36,32,42,0
1,0.33,-8.06,27.91,36,32,42,0
1,0.33,31.08,27.91,36,32,42,0
1,0.33,38.39,27.91,36,32,41,0
1,0.33,-53.65,27.91,37,33,44,0
1,0.33,2.75,27.89,36,33,35,0
1,0.34,8.89,27.89,36,32,41,0
1,0.33,5.04,27.89,39,34,39,0
1,0.33,0.92,27.89,36,32,41,0
1,0.33,4.5,27.87,32,32,45,0
1,0.34,12.6,27.87,30,32,45,0
1,0.33,-30.5,27.87,33,31,46,0
1,0.33,17.59,27.87,32,32,45,0
1,0.33,-33.39,27.87,36,32,43,0
1,0.33,10.42,27.87,34,32,43,0
1,0.34,-12.82,27.87,36,31,45,0
1,0.33,-0.21,27.87,33,31,45,0
1,0.33,37.85,27.87,34,32,44,0
1,0.34,-14.96,27.87,30,31,47,0
1,0.33,15.15,27.87,31,31,46,0
1,0.34,38.39,27.87,30,31,47,0
1,0.34,61.25,27.83,30,31,46,0
1,0.34,-3.87,27.83,30,30,47,0
1,0.34,-35.83,27.83,32,31,46,0
1,0.33,-47.58,27.83,30,31,46,0
1,0.34,-20.21,27.87,31,31,47,0
1,0.34,12.19,27.87,32,29,45,0
1,0.34,8.57,27.87,31,31,46,0
1,0.34,9.18,27.87,31,31,46,0
1,0,-0.03,31.03,72,11,28,1
1,0.09,5.06,31.03,66,-51,54,1
1,0.14,17.91,31.03,30,-18,44,1
1,0.14,79.34,31.03,-24,-77,12,1
1,0.15,228.25,31.03,9,-22,54,1
1,0.19,-486.42,31.03,2,-7,64,1
1,0.19,-6.01,31.03,6,7,72,1
1,0.19,154.76,31.03,39,2,69,1
1,0.18,32.66,31.13,79,24,36,1
1,0.17,-16.04,31.13,45,8,48,1
1,0.17,-29.38,31.13,23,8,55,1
1,0.16,-9.28,31.13,32,9,59,1
1,0.16,-5.46,31.11,26,8,60,1
1,0.16,2.31,31.11,25,9,59,1
1,0.15,8.32,31.11,31,12,55,1
1,0.15,18.72,31.11,21,7,60,1
1,0.14,15.08,31.05,19,8,61,1
1,0.15,-63.81,31.05,19,8,62,1
1,0.15,-60.33,31.05,19,9,59,1
1,0.14,-1.21,31.05,24,12,55,1
1,0.14,-74.34,31.11,27,14,52,1
1,0.14,209.16,31.11,29,12,57,1
1,0.14,11.51,31.11,50,7,57,1
1,0.14,-41.12,31.11,73,11,62,1
1,0.14,30.9,31.17,27,12,62,1
1,0.15,65.97,31.17,9,11,64,1
1,0.14,-105.74,31.17,13,6,59,1
1,0.14,40.38,31.17,4,8,66,1
1,0.14,-155.78,31.23,5,10,63,1
1,0.14,108.79,31.23,7,10,62,1
1,0.14,185.57,31.23,6,11,62,1
1,0.13,74.97,31.23,13,11,62,1
1,0.13,-38.17,31.05,8,10,65,1
1,0.13,-257.05,31.05,6,9,63,1
1,0.13,168.09,31.05,5,9,64,1
1,0.13,5.9,31.05,6,9,63,1
1,0.13,-102.95,30.95,6,8,64,1
1,0.13,-34.4,30.95,7,6,66,1
1,0.13,20.12,30.95,7,7,64,1
1,0.12,267.68,30.95,6,7,64,1
1,0.13,-40.2,31.25,6,7,64,1
1,0.13,-10.99,31.25,5,5,63,1
1,0.13,-89.37,31.25,5,6,64,1
1,0.13,-123.25,31.25,6,5,64,1
1,0.13,47.51,31.37,5,6,64,1
1,0.13,20.87,31.37,7,7,63,1
1,0.13,101.39,31.37,8,7,63,1
1,0.13,24.31,31.37,7,6,63,1
1,0.13,23.38,31.43,10,7,64,1
1,0.13,-28.01,31.43,6,7,64,1
1,0.13,161.04,31.43,5,6,64,1
1,0.13,22.71,31.43,5,7,63,1
1,0.13,-355.41,31.49,4,6,64,1
1,0.12,-180.21,31.49,2,7,64,1
1,0.12,212.71,31.49,1,8,63,1
1,0.12,117.33,31.49,0,8,64,1
1,0,-0.03,27.11,22,43,41,0
1,0.2,5.06,27.11,23,43,40,0
1,0.3,17.91,27.11,22,43,40,0
1,0.3,79.34,27.11,22,43,41,0
1,0.3,228.25,27.11,23,44,41,0
1,0.3,-486.5,27.11,22,43,41,0
1,0.3,-5.9,27.11,22,43,41,0
1,0.3,156.15,27.11,22,43,42,0
1,0.3,46.78,27.11,21,43,40,0
1,0.3,4.05,27.11,22,43,42,0
1,0.3,0.18,27.11,20,42,42,0
1,0.3,0.9,27.11,22,43,41,0
1,0.3,4,27.09,22,43,41,0
1,0.3,15.41,27.09,22,43,41,0
1,0.3,10.25,27.09,22,43,41,0
1,0.3,-14.03,27.09,21,43,41,0
1,0.3,13.49,27.09,22,43,41,0
1,0.3,50.54,27.09,22,43,42,0
1,0.3,-13.1,27.09,22,43,41,0
1,0.3,-100.26,27.09,22,43,41,0
1,0.3,19.23,27.09,21,43,41,0
1,0.3,8.59,27.09,22,43,42,0
1,0.3,26.01,27.09,21,43,42,0
1,0.3,16.23,27.09,22,43,42,0
1,0.3,-14.43,27.07,22,43,41,0
1,0.3,11.58,27.07,24,44,39,0
1,0.3,4.49,27.07,23,45,39,0
1,0.3,-13.62,27.07,24,44,41,0
1,0.3,9.02,27.07,21,43,40,0
1,0.3,5.57,27.07,22,43,40,0
1,0.3,-12.34,27.07,22,43,40,0
1,0.3,16.31,27.07,20,43,40,0
1,0.3,9.4,27.05,23,43,40,0
1,0.3,-30.58,27.05,24,43,40,0
1,0.3,9.02,27.05,23,44,40,0
1,0.3,18.39,27.05,23,43,41,0
1,0.3,-21.19,27.05,22,43,39,0
1,0.3,-7.99,27.05,22,43,40,0
1,0.3,3.07,27.05,23,44,39,0
1,0.31,13,27.05,24,44,40,0
1,0.3,15.48,27.03,22,43,40,0
1,0.3,0.56,27.03,21,43,41,0
1,0.3,-16.66,27.03,22,44,39,0
1,0.3,3.63,27.03,22,43,41,0
1,0.3,-8.21,27.03,22,43,40,0
1,0.3,-16.19,27.03,22,43,40,0
1,0.3,11.16,27.03,23,44,39,0
1,0.3,-4,27.03,21,43,41,0
1,0.3,-11.19,27.05,23,44,40,0
1,0.3,22.66,27.05,23,44,40,0
1,0.3,8.69,27.05,22,44,40,0
1,0.3,-9.78,27.05,22,43,39,0
1,0.3,7.22,27.03,22,44,40,0
1,0.3,0.06,27.03,23,43,38,0
1,0.3,-13.27,27.03,23,44,37,0
1,0.3,-9.29,27.03,23,45,40,0
1,0,-0.03,31.63,-13,-18,62,0
1,0.04,5.06,31.63,-15,-18,62,0
1,0.08,17.91,31.63,-14,-17,62,0
1,0.08,79.34,31.63,-16,-17,60,0
1,0.08,228.25,31.63,3,-12,63,0
1,0.08,-486.47,31.63,9,-3,72,0
1,0.08,-5.02,31.63,13,-2,69,0
1,0.09,160.09,31.63,4,-8,66,0
1,0.09,63.4,31.61,1,-9,65,0
1,0.09,35.3,31.61,3,-9,65,0
1,0.08,-22.52,31.61,1,-10,64,0
1,0.09,10.78,31.61,0,-10,64,0
1,0.08,79.85,31.59,-1,-10,64,0
1,0.09,157.88,31.59,-1,-10,64,0
1,0.09,61.42,31.59,0,-10,64,0
1,0.08,3.83,31.59,-1,-10,65,0
1,0.09,-3.45,31.57,4,-11,63,0
1,0.08,-7.97,31.57,0,-11,64,0
1,0.09,-12.42,31.57,-1,-11,64,0
1,0.09,-27.72,31.57,-1,-11,64,0
1,0.09,-116.2,31.57,-2,-11,64,0
1,0.09,-391.69,31.57,-3,-11,63,0
1,0.08,-67.77,31.57,-2,-11,64,0
1,0.08,32.32,31.57,-1,-13,63,0
1,0.08,55.27,31.55,-2,-11,64,0
1,0.09,16.29,31.55,-2,-11,64,0
1,0.09,-10.43,31.55,-1,-11,64,0
1,0.09,19.7,31.55,-2,-11,64,0
1,0.08,-35.76,31.51,-3,-11,64,0
1,0.09,60.46,31.51,-3,-12,63,0
1,0.08,38.33,31.51,-3,-12,64,0
1,0.08,4.61,31.51,-3,-12,64,0
1,0.08,22.61,31.49,-3,-12,64,0
1,0.08,-10.86,31.49,-3,-12,63,0
1,0.08,26.54,31.49,-3,-12,64,0
1,0.08,20.89,31.49,-2,-12,64,0
1,0.08,-18.3,31.51,-3,-12,64,0
1,0.09,14.75,31.51,-2,-12,63,0
1,0.08,-15.46,31.51,-2,-11,64,0
1,0.08,-21.16,31.51,-3,-12,64,0
1,0.08,22.43,31.49,-3,-12,63,0
1,0.08,-22.65,31.49,-3,-12,64,0
1,0.09,26.16,31.49,-3,-12,64,0
1,0.08,32.36,31.49,-2,-12,64,0
1,0.08,-48.79,31.47,-2,-12,64,0
1,0.08,36.69,31.47,-3,-12,63,0
1,0.08,-9.83,31.47,-3,-12,64,0
1,0.09,9.23,31.47,-3,-12,64,0
1,0.08,10.65,31.47,-3,-12,65,0
1,0.08,-48.85,31.47,-2,-12,65,0
1,0.08,39.32,31.47,-3,-12,64,0
1,0.08,16.22,31.47,-3,-12,64,0
1,0.08,-4.09,31.45,-4,-12,64,0
1,0.08,-42.65,31.45,-3,-12,64,0
1,0.08,-1.65,31.45,-2,-12,63,0
1,0.08,32.35,31.45,-2,-12,64,0
1,0,-0.03,34.84,59,-28,3,0
1,0.08,5.06,34.84,60,-28,1,0
1,0.13,17.91,34.84,60,-27,-3,0
1,0.13,79.34,34.84,60,-26,-1,0
1,0.13,228.25,34.84,59,-27,-1,0
1,0.13,-486.5,34.84,61,-26,-1,0
1,0.13,-5.63,34.84,60,-26,-2,0
1,0.13,157.71,34.84,61,-27,-1,0
1,0.13,54.14,34.81,60,-27,-1,0
1,0.13,29.96,34.81,60,-27,-1,0
1,0.13,-5.59,34.81,60,-27,-1,0
1,0.13,-4.75,34.81,60,-27,-1,0
1,0.13,34.4,34.81,60,-27,-1,0
1,0.13,112.85,34.81,61,-27,-1,0
1,0.13,114.85,34.81,60,-27,-1,0
1,0.13,4.53,34.81,60,-27,0,0
1,0.13,-127.17,34.81,60,-27,0,0
1,0.13,-365.04,34.81,60,-27,0,0
1,0.13,-23.29,34.81,59,-27,0,0
1,0.13,48.45,34.81,60,-27,0,0
1,0.13,34.2,34.79,61,-27,0,0
1,0.13,14.09,34.79,60,-27,1,0
1,0.13,13.94,34.79,60,-27,1,0
1,0.13,18.38,34.79,60,-27,1,0
1,0.13,-1.93,34.75,60,-27,1,0
1,0.13,-22.61,34.75,60,-27,1,0
1,0.13,-6.46,34.75,59,-28,1,0
1,0.14,3.47,34.75,60,-27,1,0
1,0.13,12.06,34.75,60,-27,0,0
1,0.13,5.62,34.75,59,-28,0,0
1,0.13,-14.46,34.75,59,-27,0,0
1,0.13,-11.51,34.75,60,-27,0,0
1,0.14,-6.11,34.73,60,-27,0,0
1,0.13,8.2,34.73,60,-27,0,0
1,0.13,19.54,34.73,60,-27,0,0
1,0.13,-6.53,34.73,59,-27,1,0
1,0.14,-11.61,34.75,60,-27,0,0
1,0.14,-8.67,34.75,60,-27,0,0
1,0.14,0.58,34.75,60,-27,1,0
1,0.13,-1.21,34.75,60,-26,1,0
1,0.13,6.91,34.71,60,-26,1,0
1,0.13,-5.05,34.71,60,-27,1,0
1,0.14,-29.26,34.71,60,-27,1,0
1,0.13,-17.8,34.71,60,-26,1,0
1,0.13,12.56,34.68,61,-26,1,0
1,0.14,15.42,34.68,59,-26,1,0
1,0.14,5.69,34.68,61,-26,1,0
1,0.14,-3.16,34.68,60,-26,1,0
1,0.14,5.96,34.71,60,-27,0,0
1,0.13,5.06,34.71,63,-27,0,0
1,0.14,-17.3,34.71,59,-27,4,0
1,0.13,-9.69,34.71,59,-29,3,0
1,0.14,-7.17,34.68,58,-30,4,0
1,0.13,-30.23,34.68,58,-29,5,0
1,0.14,-36.05,34.68,61,-27,4,0
1,0.14,-18.3,34.68,59,-28,4,0
1,0,-0.03,36.31,48,-30,33,1
1,0.07,5.06,36.31,48,-30,33,1
1,0.13,17.91,36.31,48,-30,33,1
1,0.12,79.34,36.31,48,-30,33,1
1,0.12,228.25,36.31,48,-30,33,1
1,0.12,-486.5,36.31,49,-30,33,1
1,0.12,-5.9,36.31,48,-30,33,1
1,0.12,156.15,36.31,48,-30,33,1
1,0.12,46.78,36.27,48,-30,33,1
1,0.12,4.05,36.27,48,-30,33,1
1,0.12,0.18,36.27,48,-30,33,1
1,0.12,0.91,36.27,48,-30,33,1
1,0.12,4.01,36.27,48,-30,33,1
1,0.12,15.5,36.27,48,-30,33,1
1,0.12,10.58,36.27,48,-30,33,1
1,0.13,-12.75,36.27,48,-30,33,1
1,0.12,19.05,36.25,48,-30,33,1
1,0.12,65.77,36.25,48,-30,33,1
1,0.13,48.37,36.25,48,-30,33,1
1,0.12,-271.07,36.25,48,-30,33,1
1,0.13,-2.07,36.25,48,-30,33,1
1,0.12,22.89,36.25,48,-30,33,1
1,0.13,-1.28,36.25,48,-30,33,1
1,0.13,27.55,36.25,48,-30,33,1
1,0.13,8.8,36.25,48,-30,33,1
1,0.13,-15.97,36.25,48,-30,33,1
1,0.12,15.15,36.25,48,-30,33,1
1,0.13,15.08,36.25,48,-30,33,1
1,0.13,1.26,36.23,48,-30,33,1
1,0.13,-9.5,36.23,48,-30,33,1
1,0.13,13.01,36.23,48,-30,33,1
1,0.12,3.21,36.23,48,-30,33,1
1,0.13,-29.8,36.23,48,-30,33,1
1,0.13,15.09,36.23,48,-30,33,1
1,0.13,5.71,36.23,48,-30,33,1
1,0.13,-8.41,36.23,48,-30,34,1
1,0.13,8.41,36.23,48,-30,33,1
1,0.13,11.44,36.23,48,-30,33,1
1,0.13,1.73,36.23,48,-30,33,1
1,0.13,-23.39,36.23,48,-30,33,1
1,0.13,9.08,36.18,48,-30,34,1
1,0.13,0.89,36.18,48,-30,33,1
1,0.13,-12.99,36.18,48,-30,34,1
1,0.13,9.42,36.18,48,-30,34,1
1,0.13,11.03,36.21,48,-30,33,1
1,0.13,-1.59,36.21,48,-30,34,1
1,0.13,-12.14,36.21,47,-30,34,1
1,0.13,10.56,36.21,47,-30,33,1
1,0.13,4.28,36.18,48,-30,34,1
1,0.12,-10.41,36.18,47,-30,33,1
1,0.12,4.79,36.18,48,-30,34,1
1,0.13,-1.87,36.18,48,-30,34,1
1,0.13,-13.32,36.18,48,-30,33,1
1,0.13,9.31,36.18,48,-30,33,1
1,0.13,8.58,36.18,48,-29,34,1
1,0.13,-9.06,36.18,48,-30,34,1
1,0,-0.03,30.15,41,1,50,0
1,0.2,5.06,30.15,41,1,50,0
1,0.29,17.91,30.15,42,2,51,0
1,0.28,79.34,30.15,40,2,47,0
1,0.28,228.25,30.15,44,-3,51,0
1,0.28,-486.47,30.15,44,1,48,0
1,0.28,-4.99,30.15,45,2,48,0
1,0.29,160.14,30.15,46,3,43,0
1,0.29,63.72,30.13,53,3,45,0
1,0.28,35.23,30.13,50,1,44,0
1,0.28,-24.66,30.13,51,1,42,0
1,0.28,17.18,30.13,50,0,44,0
1,0.28,74.24,30.13,53,1,45,0
1,0.28,152.32,30.13,55,0,46,0
1,0.28,63.49,30.13,48,-4,43,0
1,0.29,10.84,30.13,47,-4,46,0
1,0.28,-40.53,30.11,50,-4,41,0
1,0.28,-168.43,30.11,20,-6,52,0
1,0.28,-381.87,30.11,21,-5,63,0
1,0.28,-230.89,30.11,11,-7,61,0
1,0.28,217.35,30.07,6,-2,62,0
1,0.29,220.86,30.07,14,4,48,0
1,0.28,-36.2,30.07,19,-2,58,0
1,0.29,-260.52,30.07,22,11,60,0
1,0.29,56.82,30.11,31,3,54,0
1,0.31,98.52,30.11,43,0,52,0
1,0.31,-126.98,30.11,32,-14,64,0
1,0.31,169.04,30.11,12,-14,65,0
1,0.3,62.23,30.05,8,-9,63,0
1,0.3,-215.53,30.05,17,1,55,0
1,0.29,-253.19,30.05,26,-4,61,0
1,0.29,85.82,30.05,19,0,71,0
1,0.3,168.01,30.09,14,-12,54,0
1,0.29,225.27,30.09,34,-13,50,0
1,0.29,-409.12,30.09,16,-14,46,0
1,0.29,27.07,30.09,31,-11,54,0
1,0.29,235,30.07,39,-11,59,0
1,0.29,193.02,30.07,30,-10,45,0
1,0.29,51.11,30.07,35,-22,66,0
1,0.29,151.87,30.07,38,-10,62,0
1,0.28,-264.82,30.05,-10,6,47,0
1,0.28,282.06,30.05,10,-8,72,0
1,0.29,-111.06,30.05,7,-18,70,0
1,0.29,19.38,30.05,12,-14,59,0
1,0.29,181.98,30.09,7,-12,64,0
1,0.29,-191.35,30.09,6,-9,55,0
1,0.29,-299.49,30.09,9,-10,55,0
1,0.29,244.77,30.09,4,-11,60,0
1,0.29,227.89,30.09,10,-9,68,0
1,0.29,-147.23,30.09,13,-11,68,0
1,0.29,-99.94,30.09,11,-12,62,0
1,0.29,98.01,30.09,12,-9,66,0
1,0.29,-28.53,30.09,9,-8,64,0
1,0.29,-83.68,30.09,10,-12,66,0
1,0.29,24.22,30.09,9,-9,64,0
1,0.29,5.73,30.09,4,-10,63,0
1,0,-0.03,24.89,28,53,22,0
1,0.12,5.06,24.89,28,53,22,0
1,0.17,17.91,24.89,28,52,23,0
1,0.17,79.34,24.89,28,52,23,0
1,0.18,228.25,24.89,28,53,22,0
1,0.18,-486.5,24.89,28,53,23,0
1,0.18,-5.9,24.89,28,52,23,0
1,0.18,156.15,24.89,26,54,21,0
1,0.18,46.78,24.87,23,55,21,0
1,0.18,4.05,24.87,24,55,22,0
1,0.18,0.21,24.87,23,55,20,0
1,0.18,0.96,24.87,24,55,22,0
1,0.18,4.33,24.89,25,55,23,0
1,0.18,16.33,24.89,23,54,23,0
1,0.18,7.02,24.89,23,55,23,0
1,0.18,-11.45,24.89,23,56,21,0
1,0.18,18.36,24.89,22,55,20,0
1,0.18,65.36,24.89,22,55,21,0
1,0.18,0.87,24.89,24,56,22,0
1,0.18,-183.66,24.89,23,55,22,0
1,0.18,11.69,24.87,22,56,19,0
1,0.18,40.43,24.87,23,55,22,0
1,0.18,17.68,24.87,22,55,21,0
1,0.18,1.36,24.87,23,55,22,0
1,0.18,7.98,24.89,23,55,22,0
1,0.18,-0.56,24.89,22,55,21,0
1,0.18,-3.62,24.89,22,55,21,0
1,0.18,13.18,24.89,22,56,21,0
1,0.18,2.61,24.89,22,56,22,0
1,0.18,-11.18,24.89,23,56,21,0
1,0.18,4.74,24.89,23,55,21,0
1,0.18,4.04,24.89,23,55,21,0
1,0.18,-11.68,24.89,23,55,21,0
1,0.18,5.17,24.89,23,55,22,0
1,0.18,9.37,24.89,22,55,22,0
1,0.18,5.75,24.89,23,55,21,0
1,0.18,20.35,24.89,23,55,22,0
1,0.17,-2.21,24.89,23,55,22,0
1,0.18,-24.99,24.89,23,55,24,0
1,0.18,-31.51,24.89,23,55,23,0
1,0.18,-68.14,24.89,22,55,21,0
1,0.18,-4.27,24.89,23,55,23,0
1,0.18,121.41,24.89,23,55,22,0
1,0.18,63.15,24.89,22,55,22,0
1,0.18,-22.1,24.89,23,55,21,0
1,0.17,13.86,24.89,23,55,21,0
1,0.18,7.25,24.89,23,55,21,0
1,0.18,12.65,24.89,23,56,20,0
1,0.18,-31.06,24.89,22,56,21,0
1,0.18,-50.35,24.89,22,56,21,0
1,0.18,-8.18,24.89,22,56,20,0
1,0.18,-2.29,24.89,22,56,21,0
1,0.18,7.94,24.87,21,56,19,0
1,0.18,7.79,24.87,21,56,20,0
1,0.18,-2.34,24.87,22,56,20,0
1,0.18,6.3,24.87,22,55,20,0
1,0,-0.03,30.83,-12,41,56,0
1,0.08,5.06,30.83,-27,46,34,0
1,0.13,17.91,30.83,-28,49,30,0
1,0.12,79.34,30.83,-18,54,37,0
1,0.12,228.25,30.83,-41,47,6,0
1,0.13,-486.5,30.83,-30,50,17,0
1,0.13,-5.9,30.83,-28,46,38,0
1,0.13,156.15,30.83,-23,46,38,0
1,0.13,46.78,30.81,-27,45,38,0
1,0.13,4.05,30.81,-7,62,11,0
1,0.13,0.22,30.81,-38,46,16,0
1,0.13,0.76,30.81,-30,45,33,0
1,0.13,3.55,30.81,-21,44,40,0
1,0.13,12.74,30.81,-3,45,44,0
1,0.13,10.43,30.81,12,46,40,0
1,0.13,-4.53,30.81,19,49,38,0
1,0.13,-13.88,30.79,17,57,23,0
1,0.13,-1.83,30.79,6,53,32,0
1,0.12,149.25,30.79,-7,51,40,0
1,0.13,-314.24,30.79,1,52,36,0
1,0.13,-48.24,30.75,6,52,34,0
1,0.13,246.75,30.75,7,52,34,0
1,0.13,96.5,30.75,6,53,28,0
1,0.13,-220.57,30.75,12,54,31,0
1,0.13,-51.64,30.75,7,53,36,0
1,0.13,-47.49,30.75,6,54,32,0
1,0.13,50.18,30.75,4,53,31,0
1,0.13,42.3,30.75,5,56,31,0
1,0.13,146.92,30.75,-6,53,35,0
1,0.13,-197.78,30.75,-5,52,35,0
1,0.13,-17.14,30.75,3,54,32,0
1,0.13,-69.66,30.75,0,53,34,0
1,0.13,293.94,30.77,13,53,29,0
1,0.13,55.21,30.77,18,50,30,0
1,0.13,-160.75,30.77,23,50,26,0
1,0.13,35.73,30.77,26,50,32,0
1,0.13,68.11,30.75,16,55,16,0
1,0.12,-0.25,30.75,17,52,29,0
1,0.12,58.78,30.75,26,51,31,0
1,0.13,22.26,30.75,20,49,34,0
1,0.13,-45.76,30.77,21,48,37,0
1,0.13,-19.03,30.77,30,47,33,0
1,0.13,103.78,30.77,31,46,32,0
1,0.13,203.65,30.77,39,46,24,0
1,0.13,117.28,30.77,35,46,26,0
1,0.13,-3.82,30.77,35,45,29,0
1,0.13,-86.55,30.77,34,45,29,0
1,0.13,-521.96,30.77,32,46,29,0
1,0.14,-192.47,30.79,36,45,29,0
1,0.13,106.73,30.79,35,45,29,0
1,0.13,91.23,30.79,35,45,29,0
1,0.13,-70.29,30.79,36,45,30,0
1,0.13,289.85,30.81,34,45,28,0
1,0.13,-24.46,30.81,35,46,28,0
1,0.13,-231.86,30.81,34,45,30,0
1,0.13,126.82,30.81,34,46,30,0
1,0,-0.03,30.13,-9,-6,63,1
1,0.05,5.06,30.13,-6,-6,65,1
1,0.08,17.91,30.13,-5,-6,65,1
1,0.08,79.34,30.13,-5,-6,64,1
1,0.08,228.25,30.13,-5,-6,64,1
1,0.08,-486.5,30.13,-4,-6,64,1
1,0.08,-5.9,30.13,-4,-6,64,1
1,0.08,156.15,30.13,-4,-6,64,1
1,0.08,46.78,30.13,-3,-6,64,1
1,0.09,4.05,30.13,-4,-5,64,1
1,0.08,0.21,30.13,-1,-7,64,1
1,0.09,0.97,30.13,-2,-6,63,1
1,0.08,4.36,30.15,21,-8,59,1
1,0.09,16.39,30.15,8,-10,60,1
1,0.08,7.32,30.15,15,-15,61,1
1,0.08,-13.25,30.15,10,-8,63,1
1,0.08,16.75,30.15,9,-8,65,1
1,0.08,82.44,30.15,7,-7,64,1
1,0.09,76.04,30.15,7,-7,64,1
1,0.08,-259.49,30.15,7,-7,64,1
1,0.08,-17.27,30.15,7,-7,64,1
1,0.09,32.18,30.15,7,-7,64,1
1,0.08,25.77,30.15,7,-7,64,1
1,0.09,8.78,30.15,7,-8,63,1
1,0.09,7.3,30.15,10,-7,63,1
1,0.08,4.26,30.15,11,-7,64,1
1,0.09,0.63,30.15,7,-4,63,1
1,0.09,41.29,30.15,11,-7,63,1
1,0.08,-49.16,30.13,6,-1,64,1
1,0.09,14.63,30.13,4,-4,65,1
1,0.08,4.04,30.13,9,-6,65,1
1,0.08,10.47,30.13,8,-7,63,1
1,0.09,-16.08,30.15,7,-7,64,1
1,0.08,5.53,30.15,7,-7,64,1
1,0.09,-6.32,30.15,8,-7,64,1
1,0.08,-28.57,30.15,7,-6,64,1
1,0.08,14.78,30.15,7,-7,64,1
1,0.09,13.07,30.15,7,-7,64,1
1,0.08,10.55,30.15,7,-7,64,1
1,0.09,1.63,30.15,7,-7,64,1
1,0.08,2.03,30.13,0,-10,63,1
1,0.08,-2.69,30.13,6,-9,64,1
1,0.08,-4.45,30.13,1,-7,66,1
1,0.08,1.07,30.13,6,-6,68,1
1,0.08,22.14,30.11,3,-7,65,1
1,0.09,-59.99,30.11,2,-6,65,1
1,0.08,-53.27,30.11,2,-7,64,1
1,0.09,98,30.11,1,-7,64,1
1,0.09,64.44,30.13,2,-6,65,1
1,0.09,-33.58,30.13,0,-7,64,1
1,0.08,8.87,30.13,0,-6,65,1
1,0.08,-8.77,30.13,-1,-6,64,1
1,0.09,8.52,30.13,-1,-7,62,1
1,0.09,-19.44,30.13,2,-6,65,1
1,0.09,0.11,30.13,2,-7,63,1
1,0.09,10.1,30.13,6,-7,64,1
1,0,-0.03,31.87,6,-4,60,1
1,0.17,5.06,31.87,4,-3,64,1
1,0.26,17.91,31.87,6,-4,63,1
1,0.25,79.34,31.87,5,-3,64,1
1,0.25,228.25,31.87,6,-3,63,1
1,0.25,-486.5,31.87,6,-3,64,1
1,0.25,-5.9,31.87,6,-4,64,1
1,0.25,156.15,31.87,6,-3,65,1
1,0.25,46.78,31.83,6,-4,64,1
1,0.25,4.05,31.83,5,-4,64,1
1,0.25,0.15,31.83,6,-5,64,1
1,0.25,0.79,31.83,6,-3,64,1
1,0.25,3.43,31.83,6,-3,64,1
1,0.25,13.76,31.83,6,-3,64,1
1,0.25,16.22,31.83,6,-3,64,1
1,0.26,-16.23,31.83,7,-4,64,1
1,0.26,11.1,31.83,9,-3,64,1
1,0.25,42.58,31.83,5,-4,60,1
1,0.25,-11.75,31.83,16,-4,66,1
1,0.26,-96.48,31.83,8,-1,66,1
1,0.26,43.93,31.83,5,-2,60,1
1,0.26,1.12,31.83,2,-1,64,1
1,0.26,63.12,31.83,2,-2,66,1
1,0.26,-65.35,31.83,1,-3,65,1
1,0.26,126.46,31.81,-1,-1,62,1
1,0.26,-47.67,31.81,4,0,72,1
1,0.26,53.35,31.81,3,-2,65,1
1,0.26,-9.59,31.81,4,-1,65,1
1,0.26,22.68,31.81,7,-3,67,1
1,0.26,-66.43,31.81,6,-2,65,1
1,0.26,41.11,31.81,6,-2,63,1
1,0.26,-30.37,31.81,5,-2,63,1
1,0.25,-14.4,31.79,4,-4,63,1
1,0.25,-1.49,31.79,3,-3,71,1
1,0.25,5.02,31.79,4,-2,65,1
1,0.25,0.65,31.79,6,-1,63,1
1,0.26,-22.08,31.79,0,0,68,1
1,0.25,36.8,31.79,4,-3,64,1
1,0.25,-28.63,31.79,4,0,59,1
1,0.26,-98.57,31.79,8,-4,65,1
1,0.26,25.69,31.77,4,-1,64,1
1,0.26,40.17,31.77,5,-4,66,1
1,0.25,-125.58,31.77,7,-3,69,1
1,0.25,26.87,31.77,10,-2,66,1
1,0.25,75.49,31.77,9,-3,62,1
1,0.25,12.45,31.77,7,-3,66,1
1,0.25,-49.11,31.77,8,-3,64,1
1,0.25,4.28,31.77,7,-3,66,1
1,0.25,-118.98,31.75,6,-3,65,1
1,0.25,-131.7,31.75,5,-4,62,1
1,0.25,139.25,31.75,6,-3,65,1
1,0.25,-3.13,31.75,8,-1,58,1
1,0.25,-37.14,31.75,5,-3,64,1
1,0.26,131.27,31.75,7,-4,67,1
1,0.25,-22.17,31.75,2,-3,69,1
1,0.26,1.54,31.75,5,-3,64,1
1,0,-0.03,32.61,-1,33,57,0
1,0.02,5.06,32.61,3,41,52,0
1,0.05,17.91,32.61,-5,35,51,0
1,0.05,79.34,32.61,-7,29,46,0
1,0.05,228.25,32.61,-11,39,55,0
1,0.05,-486.5,32.61,-11,42,47,0
1,0.05,-5.9,32.61,-12,35,53,0
1,0.05,156.15,32.61,-8,36,51,0
1,0.05,46.78,32.59,-12,41,50,0
1,0.05,4.05,32.59,-11,44,50,0
1,0.05,0.13,32.59,-5,33,51,0
1,0.05,0.72,32.59,-12,31,56,0
1,0.05,3.06,32.55,-19,35,48,0
1,0.05,12.51,32.55,-16,49,44,0
1,0.05,18.39,32.55,-9,41,50,0
1,0.05,-16.55,32.55,-16,24,55,0
1,0.05,16.39,32.5,-23,31,51,0
1,0.05,77.85,32.5,-13,41,46,0
1,0.05,145.77,32.5,-13,50,45,0
1,0.05,-90.55,32.5,-10,43,49,0
1,0.06,-230.57,32.49,-17,44,44,0
1,0.05,-2.17,32.49,-17,36,55,0
1,0.05,9.02,32.49,-20,42,44,0
1,0.05,-33.21,32.49,-17,40,60,0
1,0.05,38.33,32.47,-20,56,33,0
1,0.06,-41.31,32.47,-32,45,3,0
1,0.06,23.52,32.47,-42,42,-14,0
1,0.05,-67.15,32.47,-38,52,-11,0
1,0.06,78.59,32.47,-35,58,-14,0
1,0.05,-57.82,32.47,-18,61,6,0
1,0.06,-65.57,32.47,-8,60,8,0
1,0.05,-50.27,32.47,-2,59,26,0
1,0.06,-19.24,32.45,7,58,25,0
1,0.06,-56.35,32.45,4,54,27,0
1,0.05,-32.92,32.45,5,44,39,0
1,0.05,74.37,32.45,21,57,39,0
1,0.05,33.78,32.47,10,52,28,0
1,0.05,28.71,32.47,24,57,31,0
1,0.06,-48.47,32.47,10,49,33,0
1,0.05,3.54,32.47,6,51,30,0
1,0.05,54.4,32.43,30,52,50,0
1,0.05,2,32.43,10,52,25,0
1,0.05,55.88,32.43,30,54,28,0
1,0.05,-58.55,32.43,22,44,26,0
1,0.05,-35.03,32.41,-11,43,36,0
1,0.05,158.86,32.41,13,51,25,0
1,0.05,-102.93,32.41,20,54,24,0
1,0.05,10.22,32.41,32,60,20,0
1,0.05,-53.22,32.41,23,59,16,0
1,0.05,165.36,32.41,35,58,15,0
1,0.05,105.21,32.41,27,55,18,0
1,0.05,-109.62,32.41,28,56,15,0
1,0.05,5.98,32.39,42,47,18,0
1,0.05,-45.59,32.39,36,49,13,0
1,0.05,28.93,32.39,33,41,33,0
1,0.05,11.48,32.39,28,43,31,0
1,0,-0.03,30.33,51,-2,40,0
1,0.03,5.06,30.33,51,-5,40,0
1,0.06,17.91,30.33,50,-3,40,0
1,0.06,79.34,30.33,51,-3,40,0
1,0.06,228.25,30.33,48,-2,39,0
1,0.06,-486.5,30.33,52,12,38,0
1,0.06,-5.82,30.33,31,8,50,0
1,0.06,157.32,30.33,44,-3,48,0
1,0.06,52.06,30.31,53,-1,60,0
1,0.06,25.24,30.31,1,-47,33,0
1,0.06,23.83,30.31,-1,-59,38,0
1,0.06,-23.28,30.31,-15,-56,26,0
1,0.06,5.09,30.21,0,-46,39,0
1,0.06,47.68,30.21,-9,-52,31,0
1,0.06,151.54,30.21,-9,-52,43,0
1,0.07,39.64,30.21,-9,-56,26,0
1,0.06,-17.14,30.25,-11,-56,30,0
1,0.06,-32.03,30.25,-13,-56,30,0
1,0.06,-332.28,30.25,-16,-54,33,0
1,0.06,87.29,30.25,-14,-55,35,0
1,0.06,-59.97,30.27,-13,-54,34,0
1,0.06,57.02,30.27,-14,-54,34,0
1,0.06,20.9,30.27,-13,-55,34,0
1,0.06,-2.89,30.27,-13,-54,34,0
1,0.06,-31.31,30.25,-13,-54,34,0
1,0.06,-33.29,30.25,-13,-55,33,0
1,0.06,16.38,30.25,-15,-54,34,0
1,0.06,-32.04,30.25,-13,-54,34,0
1,0.06,31.12,30.23,-14,-54,34,0
1,0.06,12.72,30.23,-14,-54,34,0
1,0.06,-25.8,30.23,-15,-54,35,0
1,0.06,19.5,30.23,-15,-54,34,0
1,0.06,-27.78,30.21,-14,-54,33,0
1,0.06,32.26,30.21,-15,-53,34,0
1,0.06,11.68,30.21,-15,-54,34,0
1,0.06,-31.23,30.21,-14,-54,34,0
1,0.06,24.41,30.19,-14,-54,34,0
1,0.07,-16.3,30.19,-13,-54,33,0
1,0.06,34.73,30.19,-13,-54,34,0
1,0.06,17.24,30.19,-13,-54,35,0
1,0.06,-51.2,30.17,-13,-54,34,0
1,0.06,30.01,30.17,-13,-54,34,0
1,0.06,-2.71,30.17,-14,-54,35,0
1,0.06,-10.09,30.17,-14,-54,34,0
1,0.06,29,30.15,-14,-54,34,0
1,0.06,-19.93,30.15,-13,-54,34,0
1,0.06,22.41,30.15,-14,-54,34,0
1,0.06,19.78,30.15,-14,-54,35,0
1,0.06,-24.45,30.15,-13,-54,34,0
1,0.06,28.86,30.15,-14,-54,34,0
1,0.06,15.14,30.15,-14,-54,34,0
1,0.06,-39.02,30.15,-8,-52,38,0
1,0.06,32.19,30.11,-11,-54,29,0
1,0.06,13.19,30.11,-18,-55,26,0
1,0.06,-53.2,30.11,-38,-53,0,0
1,0.03,6.25,30.11,-32,-52,16,0
1,0,-0.03,32.47,16,117,-3,0
1,0.74,5.06,32.47,-10,74,-6,0
1,0.9,17.91,32.47,-13,74,4,0
1,0.75,79.34,32.47,0,92,22,0
1,0.76,228.25,32.47,-1,109,6,0
1,0.77,-486.5,32.47,-4,68,3,0
1,0.74,-5.9,32.47,-14,70,10,0
1,0.78,156.15,32.47,-11,66,10,0
1,0.78,46.78,32.45,8,108,29,0
1,0.78,4.05,32.45,-2,72,-10,0
1,0.77,0.11,32.45,-3,49,-6,0
1,0.78,0.58,32.45,-28,92,7,0
1,0.77,2.45,32.45,-2,103,3,0
1,0.77,10.6,32.45,-5,75,-3,0
1,0.76,22.84,32.45,-19,75,2,0
1,0.75,-21.25,32.45,-8,75,10,0
1,0.75,-10.75,32.45,-22,97,30,0
1,0.76,-28.71,32.45,9,78,-3,0
1,0.75,4.42,32.45,-8,61,1,0
1,0.75,261.14,32.45,-39,72,79,0
1,0.75,9.7,32.43,-20,127,26,0
1,0.67,-289.05,32.43,24,20,-7,0
1,0.75,154.7,32.43,-72,58,-2,0
1,0.79,176.62,32.43,-25,-7,-15,0
1,0.8,-410.82,32.43,-83,30,19,0
1,0.8,182.59,32.43,-55,28,33,0
1,0.85,-66.47,32.43,-104,106,31,0
1,0.89,-168.11,32.43,-34,-10,6,0
1,0.89,-172.74,32.41,-54,42,11,0
1,0.77,-72.67,32.41,-25,32,29,0
1,0.88,354.05,32.41,-79,58,-14,0
1,0.92,-99.38,32.41,-79,14,-2,0
1,0.96,-1.76,32.45,-42,35,-1,0
1,0.92,51.26,32.45,-31,14,-13,0
1,0.83,107.66,32.45,-44,27,18,0
1,0.93,-115.99,32.45,-2,41,36,0
1,0.89,-32.4,32.43,-75,48,2,0
1,0.7,-197.93,32.43,-4,15,16,0
1,0.72,97.42,32.43,-53,77,82,0
1,0.86,-63.09,32.43,-20,-7,10,0
1,0.86,233.09,32.43,-16,81,31,0
1,0.85,302.13,32.43,-9,67,9,0
1,0.85,-70.03,32.43,-28,64,9,0
1,0.84,-360.9,32.43,-4,54,11,0
1,0.84,193.21,32.43,-30,91,1,0
1,0.84,-36.81,32.43,-1,50,-4,0
1,0.84,-190.03,32.43,-26,122,-1,0
1,0.86,37.3,32.43,11,61,38,0
1,0.86,69.05,32.39,-10,87,-1,0
1,0.86,64.51,32.39,-4,68,-13,0
1,0.85,-4.99,32.39,-16,72,11,0
1,0.86,118.75,32.39,31,86,56,0
1,0.86,-89.82,32.39,-5,87,-11,0
1,0.86,-307.84,32.39,-5,76,-12,0
1,0.87,72.78,32.39,-20,105,35,0
1,0.88,291.89,32.39,5,86,51,0
1,0,-0.03,29.29,-43,36,32,1
1,0.35,5.06,29.29,-44,36,31,1
1,0.46,17.91,29.29,-44,36,32,1
1,0.45,79.34,29.29,-43,36,32,1
1,0.45,228.25,29.29,-44,36,31,1
1,0.45,-486.5,29.29,-44,36,32,1
1,0.45,-5.9,29.29,-44,36,32,1
1,0.45,156.15,29.29,-44,36,32,1
1,0.45,46.78,29.31,-44,36,32,1
1,0.45,4.05,29.31,-44,36,31,1
1,0.45,0.12,29.31,-44,36,32,1
1,0.45,0.68,29.31,-43,36,32,1
1,0.45,2.9,29.29,-44,36,32,1
1,0.45,11.99,29.29,-44,36,32,1
1,0.45,19.75,29.29,-44,36,32,1
1,0.45,-15.79,29.29,-43,36,32,1
1,0.45,11.16,29.27,-43,36,32,1
1,0.45,57.43,29.27,-43,36,32,1
1,0.45,89.47,29.27,-44,36,32,1
1,0.45,-229.36,29.27,-43,36,32,1
1,0.45,-46.8,29.27,-43,36,33,1
1,0.45,27.86,29.27,-43,36,33,1
1,0.45,18.23,29.27,-43,36,32,1
1,0.45,19.36,29.27,-43,36,33,1
1,0.45,7.78,29.31,-43,36,32,1
1,0.45,0.61,29.31,-43,36,32,1
1,0.46,4.04,29.31,-43,36,33,1
1,0.45,-9.05,29.31,-43,36,33,1
1,0.45,2.77,29.25,-43,36,33,1
1,0.45,3.95,29.25,-43,36,32,1
1,0.45,-1.06,29.25,-43,36,32,1
1,0.45,-8.96,29.25,-43,36,33,1
1,0.45,7.51,29.29,-43,36,32,1
1,0.45,8.19,29.29,-43,36,32,1
1,0.45,-20.87,29.29,-43,36,33,1
1,0.45,10.37,29.29,-43,36,33,1
1,0.45,-1.95,29.27,-44,36,32,1
1,0.45,-5.88,29.27,-43,36,33,1
1,0.45,6.69,29.27,-43,36,32,1
1,0.45,-10.59,29.27,-43,36,32,1
1,0.45,6.7,29.27,-43,36,33,1
1,0.45,12.97,29.27,-43,36,33,1
1,0.45,-18.74,29.27,-43,36,32,1
1,0.45,10.47,29.27,-43,36,33,1
1,0.45,10.02,29.31,-43,36,33,1
1,0.45,-13.76,29.31,-43,36,33,1
1,0.45,-0.08,29.31,-43,36,33,1
1,0.45,7,29.31,-43,36,32,1
1,0.45,-14.12,29.27,-43,36,33,1
1,0.46,17.63,29.27,-43,36,33,1
1,0.45,-1,29.27,-43,36,32,1
1,0.46,8.02,29.27,-43,36,32,1
1,0.45,8.56,29.27,-43,36,32,1
1,0.46,-19.65,29.27,-43,36,33,1
1,0.45,5.58,29.27,-43,36,32,1
1,0.45,8.09,29.27,-43,36,33,1
1,0,-0.03,32.57,10,-2,64,0
1,0.17,5.06,32.57,10,-2,64,0
1,0.24,17.91,32.57,10,-2,64,0
1,0.24,79.34,32.57,10,-2,64,0
1,0.24,228.25,32.57,10,-2,63,0
1,0.24,-486.5,32.57,10,-2,64,0
1,0.24,-5.9,32.57,9,-1,64,0
1,0.24,156.15,32.57,10,-1,64,0
1,0.24,46.78,32.55,10,-2,64,0
1,0.24,4.05,32.55,10,-1,64,0
1,0.24,0.16,32.55,9,-2,64,0
1,0.24,0.82,32.55,10,-2,64,0
1,0.24,3.62,32.55,9,-1,63,0
1,0.24,14.26,32.55,9,-1,64,0
1,0.24,14.12,32.55,9,-2,64,0
1,0.25,-17.98,32.55,9,-1,64,0
1,0.25,-4.48,32.5,9,-1,64,0
1,0.24,-12.92,32.5,9,-1,64,0
1,0.25,-53.31,32.5,9,-2,64,0
1,0.25,30.7,32.5,9,-1,64,0
1,0.25,14.41,32.5,9,-1,64,0
1,0.25,-3.74,32.5,9,-2,64,0
1,0.25,6.04,32.5,9,-2,64,0
1,0.25,1.11,32.5,9,-1,64,0
1,0.25,-6.99,32.49,9,-1,64,0
1,0.25,3.17,32.49,9,-1,64,0
1,0.25,7.32,32.49,9,-2,63,0
1,0.25,-12.18,32.49,9,-2,64,0
1,0.25,6.87,32.47,9,-1,64,0
1,0.25,-0.06,32.47,9,-1,64,0
1,0.25,-6.13,32.47,9,-1,64,0
1,0.25,1.72,32.47,9,-2,64,0
1,0.25,6.78,32.47,8,-1,64,0
1,0.25,-10.92,32.47,9,-2,64,0
1,0.25,4.47,32.47,9,-1,64,0
1,0.25,0.27,32.47,9,-1,64,0
1,0.25,-23.25,32.45,8,-1,64,0
1,0.26,-51.55,32.45,8,-2,64,0
1,0.25,48.63,32.45,8,-2,64,0
1,0.25,37.24,32.45,8,-1,64,0
1,0.25,15.07,32.43,8,-2,64,0
1,0.25,2.63,32.43,8,-2,64,0
1,0.25,-0.78,32.43,8,-2,64,0
1,0.25,6.64,32.43,9,-2,64,0
1,0.25,-5.3,32.43,8,-1,64,0
1,0.25,5.3,32.43,8,-1,64,0
1,0.25,1.84,32.43,8,-2,64,0
1,0.25,-3.67,32.43,8,-2,64,0
1,0.26,2.93,32.41,8,-2,64,0
1,0.26,3.65,32.41,8,-1,64,0
1,0.26,-4.44,32.41,8,-1,64,0
1,0.26,-1.83,32.41,8,-2,64,0
1,0.26,0.72,32.41,7,-2,64,0
1,0.26,-2.92,32.41,7,-1,64,0
1,0.26,-0.28,32.41,7,-1,64,0
1,0.25,6.17,32.41,7,-2,64,0
1,0,-0.03,39.39,46,-26,38,0
1,0.11,5.06,39.39,46,-26,38,0
1,0.17,17.91,39.39,46,-26,38,0
1,0.17,79.34,39.39,46,-27,38,0
1,0.17,228.25,39.39,46,-26,38,0
1,0.17,-486.5,39.39,46,-26,38,0
1,0.17,-5.9,39.39,46,-26,38,0
1,0.17,156.15,39.39,46,-27,38,0
1,0.17,46.78,39.39,43,-25,37,0
1,0.17,4.05,39.39,47,-26,38,0
1,0.17,0.12,39.39,45,-29,37,0
1,0.17,0.67,39.39,45,-28,38,0
1,0.17,2.85,39.41,45,-28,38,0
1,0.17,11.9,39.41,45,-28,38,0
1,0.17,21.66,39.41,45,-28,37,0
1,0.17,-17.1,39.41,46,-29,38,0
1,0.17,5.76,39.37,45,-28,37,0
1,0.17,43.91,39.37,45,-28,37,0
1,0.17,30.76,39.37,45,-28,38,0
1,0.17,-143.29,39.37,45,-29,37,0
1,0.17,2.36,39.37,45,-29,38,0
1,0.17,37.7,39.37,45,-28,38,0
1,0.17,22.85,39.37,45,-28,38,0
1,0.17,-24.27,39.37,45,-28,37,0
1,0.17,-4.71,39.33,45,-28,37,0
1,0.17,-3.71,39.33,45,-28,38,0
1,0.18,19.41,39.33,45,-28,38,0
1,0.17,19.71,39.33,45,-28,37,0
1,0.17,-27.38,39.33,45,-28,37,0
1,0.17,1.32,39.33,45,-28,38,0
1,0.17,-11.93,39.33,45,-29,38,0
1,0.17,22.65,39.33,45,-28,37,0
1,0.17,8.31,39.31,45,-29,37,0
1,0.17,-1.85,39.31,45,-29,37,0
1,0.17,18.59,39.31,45,-29,38,0
1,0.17,-18.37,39.31,46,-29,37,0
1,0.18,14.63,39.29,40,-21,35,0
1,0.17,-9.2,39.29,43,-12,41,0
1,0.17,-0.13,39.29,52,-15,40,0
1,0.17,-28.83,39.29,44,-31,27,0
1,0.18,38.88,39.27,23,1,-1,0
1,0.17,157.64,39.27,41,-16,-1,0
1,0.17,217.08,39.27,54,-12,0,0
1,0.16,116.56,39.27,61,-13,1,0
1,0.16,-66.55,39.25,69,-17,-3,0
1,0.16,-376.45,39.25,66,-16,-1,0
1,0.16,16.5,39.25,67,-12,-1,0
1,0.16,210.63,39.25,69,-14,-2,0
1,0.16,-154.81,39.21,64,-14,0,0
1,0.16,-228.35,39.21,65,-14,0,0
1,0.16,-354.66,39.21,63,-13,-3,0
1,0.16,-26.15,39.21,65,-14,-1,0
1,0.16,109.19,39.21,65,-13,-2,0
1,0.16,68.94,39.21,64,-14,-2,0
1,0.16,74.58,39.21,65,-13,-1,0
1,0.16,160.11,39.21,65,-13,-1,0
1,0,-0.03,33.87,48,43,18,0
1,0.18,5.06,33.87,47,42,19,0
1,0.27,17.91,33.87,50,43,24,0
1,0.26,79.34,33.87,47,42,24,0
1,0.26,228.25,33.87,44,43,26,0
1,0.26,-486.45,33.87,43,42,27,0
1,0.25,-4.91,33.87,39,41,28,0
1,0.26,160.67,33.87,36,41,29,0
1,0.26,65.38,33.81,39,42,29,0
1,0.26,31.75,33.81,40,42,28,0
1,0.26,-17.37,33.81,39,42,28,0
1,0.26,19.4,33.81,39,42,28,0
1,0.26,78.56,33.83,39,42,28,0
1,0.26,150.21,33.83,39,42,28,0
1,0.26,51.89,33.83,39,42,28,0
1,0.26,0.25,33.83,39,42,28,0
1,0.26,-3.41,33.81,40,41,28,0
1,0.26,-33.16,33.81,39,42,29,0
1,0.26,-124.74,33.81,39,42,28,0
1,0.26,-364.73,33.81,39,41,28,0
1,0.26,-19.02,33.81,39,42,29,0
1,0.26,72.07,33.81,39,42,28,0
1,0.26,-57.67,33.81,40,42,29,0
1,0.26,55.61,33.81,39,42,29,0
1,0.26,-142.41,33.81,41,42,29,0
1,0.26,82.5,33.81,41,42,29,0
1,0.26,9.29,33.81,40,42,29,0
1,0.26,-41.97,33.81,39,42,30,0
1,0.26,-21.02,33.77,38,42,30,0
1,0.26,-31.07,33.77,37,42,31,0
1,0.26,-64.39,33.77,37,41,31,0
1,0.26,27.47,33.77,38,42,31,0
1,0.26,4.56,33.77,35,40,33,0
1,0.26,11.56,33.77,36,41,32,0
1,0.26,26.19,33.77,37,41,31,0
1,0.26,-9.09,33.77,35,41,31,0
1,0.26,-96.2,33.77,36,42,30,0
1,0.27,53.76,33.77,38,41,30,0
1,0.26,114.65,33.77,39,41,29,0
1,0.27,49.16,33.77,38,41,30,0
1,0.26,-10.41,33.75,38,41,30,0
1,0.26,78.63,33.75,39,42,30,0
1,0.27,91.48,33.75,37,42,30,0
1,0.27,-16.2,33.75,39,42,27,0
1,0.26,-104.06,33.73,41,43,27,0
1,0.26,-104.95,33.73,41,42,27,0
1,0.27,-24.47,33.73,39,43,29,0
1,0.27,-188.26,33.73,39,41,29,0
1,0.27,229.68,33.73,38,41,29,0
1,0.26,1.62,33.73,39,42,29,0
1,0.27,-104.74,33.73,36,41,32,0
1,0.27,22.48,33.73,34,41,32,0
1,0.27,4.01,33.75,36,40,33,0
1,0.27,84.73,33.75,37,42,30,0
1,0.27,-20.93,33.75,37,42,31,0
1,0.27,59,33.75,38,42,31,0
1,0,-0.03,29.23,11,2,63,0
1,0.46,5.06,29.23,12,3,64,0
1,0.6,17.91,29.23,11,3,64,0
1,0.59,79.34,29.23,10,3,64,0
1,0.59,228.25,29.23,9,3,64,0
1,0.59,-486.5,29.23,9,2,64,0
1,0.59,-5.9,29.23,10,3,64,0
1,0.59,156.15,29.23,10,2,64,0
1,0.59,46.78,29.21,10,3,64,0
1,0.59,4.05,29.21,9,2,63,0
1,0.59,0.17,29.21,9,3,64,0
1,0.59,0.87,29.21,9,2,63,0
1,0.59,3.82,29.19,9,2,64,0
1,0.59,14.89,29.19,9,3,64,0
1,0.59,12.2,29.19,8,2,64,0
1,0.59,-13.14,29.19,9,2,63,0
1,0.59,16.75,29.21,8,2,64,0
1,0.59,67.11,29.21,8,2,64,0
1,0.59,50.27,29.21,8,2,63,0
1,0.59,-260.17,29.21,2,3,64,0
1,0.59,-14.4,29.19,10,1,63,0
1,0.59,28.1,29.19,12,2,63,0
1,0.59,26.66,29.19,13,-4,59,0
1,0.59,16.29,29.19,18,-2,61,0
1,0.59,10.8,29.19,19,-2,64,0
1,0.59,109.3,29.19,21,0,60,0
1,0.59,-12.37,29.19,28,1,59,0
1,0.59,-99.01,29.19,24,0,60,0
1,0.59,-66.61,29.15,32,1,55,0
1,0.59,3.98,29.15,36,1,54,0
1,0.59,52.85,29.15,33,1,55,0
1,0.59,10.25,29.15,32,0,56,0
1,0.59,-17.35,29.19,31,0,57,0
1,0.59,27.64,29.19,31,0,57,0
1,0.59,12.76,29.19,32,0,56,0
1,0.59,15.17,29.19,31,0,57,0
1,0.59,3.68,29.19,31,0,56,0
1,0.6,-28.2,29.19,32,0,56,0
1,0.59,-21.73,29.19,32,0,56,0
1,0.6,9.61,29.19,31,0,57,0
1,0.59,2.53,29.19,31,0,57,0
1,0.59,12.63,29.19,31,0,55,0
1,0.59,4.91,29.19,32,0,56,0
1,0.6,-7.16,29.19,32,0,57,0
1,0.59,0.72,29.15,31,0,57,0
1,0.59,-4.75,29.15,31,0,56,0
1,0.59,8.14,29.15,31,0,56,0
1,0.6,4.89,29.15,31,0,56,0
1,0.59,-4.33,29.19,31,0,57,0
1,0.59,4.02,29.19,31,0,56,0
1,0.59,1.13,29.19,31,0,56,0
1,0.59,-1.13,29.19,31,0,57,0
1,0.59,0.68,29.15,31,0,56,0
1,0.6,-3.06,29.15,31,0,56,0
1,0.6,-1.81,29.15,31,0,56,0
1,0.6,1.53,29.15,30,0,57,0
1,0,-0.03,29.31,21,25,53,1
1,0.11,5.06,29.31,30,21,60,1
1,0.18,17.91,29.31,25,23,55,1
1,0.17,79.34,29.31,25,23,54,1
1,0.17,228.25,29.31,25,23,54,1
1,0.17,-486.5,29.31,25,24,53,1
1,0.17,-5.9,29.31,28,22,54,1
1,0.17,156.15,29.31,24,22,52,1
1,0.17,46.78,29.35,26,24,54,1
1,0.18,4.05,29.35,25,24,53,1
1,0.18,0.13,29.35,19,26,50,1
1,0.17,0.7,29.35,22,20,57,1
1,0.17,3.05,29.37,25,20,56,1
1,0.17,12.53,29.37,26,21,56,1
1,0.17,19.75,29.37,22,23,52,1
1,0.17,-15.06,29.37,19,22,65,1
1,0.17,-11.62,29.39,15,21,58,1
1,0.17,-29.58,29.39,16,21,57,1
1,0.17,105.46,29.39,22,22,58,1
1,0.17,26.28,29.39,30,23,54,1
1,0.17,-71.05,29.39,37,26,50,1
1,0.18,11.6,29.39,34,27,46,1
1,0.18,186.8,29.39,34,26,45,1
1,0.18,140.93,29.39,35,27,44,1
1,0.18,241.24,29.37,34,26,45,1
1,0.18,-178.05,29.37,37,23,54,1
1,0.18,-462.79,29.37,35,25,51,1
1,0.18,-131.95,29.37,38,26,52,1
1,0.18,-475.4,29.41,32,26,50,1
1,0.18,-133.53,29.41,34,26,50,1
1,0.18,74.85,29.41,27,25,53,1
1,0.18,160.47,29.41,23,26,54,1
1,0.18,68.51,29.41,24,26,53,1
1,0.18,39.07,29.41,23,24,54,1
1,0.18,47.21,29.41,25,23,52,1
1,0.18,75.69,29.41,26,24,53,1
1,0.18,252.05,29.43,27,24,53,1
1,0.18,334.68,29.43,25,24,54,1
1,0.18,-27.92,29.43,25,23,54,1
1,0.18,-99.95,29.43,25,23,53,1
1,0.18,6.51,29.45,25,24,53,1
1,0.18,62.34,29.45,24,24,53,1
1,0.18,57.46,29.45,25,26,53,1
1,0.18,-50.02,29.45,27,24,52,1
1,0.18,-64.97,29.43,25,24,54,1
1,0.18,-5.46,29.43,25,24,53,1
1,0.18,-28.33,29.43,25,25,53,1
1,0.18,31.48,29.43,24,24,54,1
1,0.18,-36.2,29.49,25,23,53,1
1,0.18,-7.67,29.49,27,25,54,1
1,0.18,-6.88,29.49,25,24,54,1
1,0.18,12.02,29.49,25,24,53,1
1,0.18,5.78,29.47,25,24,53,1
1,0.18,-38.49,29.47,24,24,53,1
1,0.18,45.28,29.47,24,24,53,1
1,0.18,11.01,29.47,24,23,54,1
1,0,-0.03,31.61,-51,-27,33,1
1,0.12,5.06,31.61,-51,-26,33,1
1,0.18,17.91,31.61,-51,-27,33,1
1,0.18,79.34,31.61,-51,-27,32,1
1,0.18,228.25,31.61,-51,-28,31,1
1,0.18,-486.5,31.61,-50,-27,33,1
1,0.18,-5.9,31.61,-51,-26,33,1
1,0.18,156.15,31.61,-53,-27,32,1
1,0.18,46.78,31.59,-52,-27,32,1
1,0.18,4.05,31.59,-52,-28,31,1
1,0.18,0.13,31.59,-52,-28,31,1
1,0.18,0.74,31.59,-50,-28,32,1
1,0.18,3.16,31.59,-51,-27,34,1
1,0.18,12.94,31.59,-53,-28,32,1
1,0.18,18.62,31.59,-52,-27,33,1
1,0.18,-16.44,31.59,-51,-27,33,1
1,0.18,13.46,31.59,-52,-28,30,1
1,0.18,59.89,31.59,-52,-29,29,1
1,0.19,82.44,31.59,-52,-30,29,1
1,0.18,-254.79,31.59,-52,-29,29,1
1,0.19,-58.28,31.61,-53,-29,29,1
1,0.18,29.08,31.61,-52,-29,29,1
1,0.19,30.83,31.61,-52,-29,29,1
1,0.19,3.38,31.61,-53,-29,29,1
1,0.18,20.71,31.57,-52,-29,28,1
1,0.19,11.62,31.57,-52,-30,28,1
1,0.19,-5.97,31.57,-53,-29,28,1
1,0.19,20.29,31.57,-53,-29,28,1
1,0.18,-10.93,31.57,-53,-29,28,1
1,0.19,13.55,31.57,-53,-29,29,1
1,0.19,13.34,31.57,-52,-29,29,1
1,0.19,-4.85,31.57,-53,-29,29,1
1,0.19,12.45,31.57,-53,-29,29,1
1,0.19,6.27,31.57,-53,-29,29,1
1,0.19,-28.06,31.57,-53,-29,28,1
1,0.19,12.13,31.57,-52,-30,29,1
1,0.19,15.17,31.59,-52,-30,29,1
1,0.19,-20.23,31.59,-52,-30,28,1
1,0.19,7.66,31.59,-52,-30,29,1
1,0.19,21.43,31.59,-52,-29,29,1
1,0.19,-24.08,31.57,-52,-30,29,1
1,0.19,22.59,31.57,-52,-30,29,1
1,0.19,0.37,31.57,-52,-30,28,1
1,0.19,-25.54,31.57,-53,-30,28,1
1,0.19,15.92,31.57,-52,-30,28,1
1,0.19,1.51,31.57,-52,-30,27,1
1,0.19,-27.3,31.57,-52,-30,28,1
1,0.19,11.57,31.57,-52,-30,28,1
1,0.19,8.89,31.55,-52,-30,28,1
1,0.19,-10.61,31.55,-52,-31,28,1
1,0.19,13.45,31.55,-52,-30,27,1
1,0.19,20.06,31.55,-52,-30,28,1
1,0.19,-18.41,31.57,-53,-30,28,1
1,0.19,8.97,31.57,-52,-30,28,1
1,0.19,14.28,31.57,-52,-30,28,1
1,0.19,-18.67,31.57,-52,-30,27,1
1,0,-0.03,31.13,-35,34,41,0
1,0.06,5.06,31.13,-36,34,42,0
1,0.11,17.91,31.13,-35,34,42,0
1,0.11,79.34,31.13,-33,34,45,0
1,0.11,228.25,31.13,-33,34,43,0
1,0.11,-486.46,31.13,-34,35,43,0
1,0.11,-4.96,31.13,-35,35,42,0
1,0.11,160.25,31.13,-35,35,41,0
1,0.11,63.9,31.11,-35,35,42,0
1,0.11,31.71,31.11,-34,35,42,0
1,0.11,-24.14,31.11,-34,35,42,0
1,0.11,11.19,31.11,-34,35,42,0
1,0.11,-8.07,31.13,-34,35,42,0
1,0.11,-232.39,31.13,-33,35,42,0
1,0.11,128.92,31.13,-35,35,42,0
1,0.11,234.28,31.13,-35,35,42,0
1,0.11,40.82,31.11,-35,35,42,0
1,0.11,-37.55,31.11,-35,35,42,0
1,0.11,4.07,31.11,-35,35,42,0
1,0.11,-59.31,31.11,-35,35,42,0
1,0.11,-1.72,31.09,-35,35,42,0
1,0.11,3.89,31.09,-35,35,42,0
1,0.11,3.3,31.09,-35,35,42,0
1,0.11,-4.88,31.09,-35,35,42,0
1,0.11,-5.06,31.09,-34,35,42,0
1,0.11,8.47,31.09,-35,35,42,0
1,0.11,-11.86,31.09,-35,35,42,0
1,0.11,27.11,31.09,-34,35,42,0
1,0.11,-6.76,31.09,-35,35,42,0
1,0.11,-3.32,31.09,-35,35,42,0
1,0.11,-3.01,31.09,-35,35,42,0
1,0.11,-1.11,31.09,-35,35,42,0
1,0.11,11.32,31.09,-35,35,42,0
1,0.11,-0.2,31.09,-35,35,42,0
1,0.11,-5.47,31.09,-34,35,42,0
1,0.11,2.59,31.09,-35,35,42,0
1,0.11,-10.5,31.09,-35,35,42,0
1,0.11,2.38,31.09,-35,35,42,0
1,0.11,-4.15,31.09,-35,35,42,0
1,0.11,-1.62,31.09,-35,35,42,0
1,0.11,5.67,31.07,-35,35,42,0
1,0.11,9.32,31.07,-34,35,42,0
1,0.11,21.61,31.07,-34,35,42,0
1,0.11,-16.38,31.07,-34,35,42,0
1,0.11,-11.32,31.09,-35,35,42,0
1,0.11,10.85,31.09,-36,35,42,0
1,0.11,-23.86,31.09,-36,35,41,0
1,0.11,-27.05,31.09,-37,35,40,0
1,0.11,-44.57,31.09,-37,35,40,0
1,0.11,-112.12,31.09,-37,34,40,0
1,0.11,113.45,31.09,-39,33,39,0
1,0.11,165.34,31.09,-37,35,40,0
1,0.11,66.92,31.09,-36,34,40,0
1,0.11,-43.11,31.09,-37,35,40,0
1,0.11,41.21,31.09,-38,35,40,0
1,0.11,-827.69,31.09,-36,34,40,0
1,0,-0.03,37.57,50,-40,14,0
1,0.09,5.06,37.57,50,-39,14,0
1,0.16,17.91,37.57,50,-39,14,0
1,0.15,79.34,37.57,50,-39,14,0
1,0.15,228.25,37.57,50,-39,14,0
1,0.15,-486.5,37.57,50,-39,14,0
1,0.15,-5.9,37.57,50,-39,14,0
1,0.16,156.15,37.57,50,-39,15,0
1,0.16,46.78,37.59,50,-39,15,0
1,0.15,4.05,37.59,50,-39,14,0
1,0.16,0.2,37.59,50,-40,15,0
1,0.16,0.94,37.59,50,-39,15,0
1,0.16,4.24,37.59,50,-39,15,0
1,0.16,16.08,37.59,50,-40,15,0
1,0.16,8.05,37.59,50,-39,15,0
1,0.16,-10.8,37.59,50,-39,15,0
1,0.16,20.5,37.61,50,-39,15,0
1,0.16,77.98,37.61,50,-39,15,0
1,0.16,55.53,37.61,50,-39,15,0
1,0.16,-277.42,37.61,50,-39,15,0
1,0.16,-68.67,37.57,50,-39,15,0
1,0.16,44.53,37.57,50,-39,15,0
1,0.17,1.63,37.57,50,-39,15,0
1,0.16,38.1,37.57,50,-39,15,0
1,0.16,-4.95,37.57,50,-40,15,0
1,0.17,43.02,37.57,50,-39,15,0
1,0.17,-11.19,37.57,50,-39,15,0
1,0.17,12.92,37.57,50,-40,16,0
1,0.17,5.69,37.57,50,-40,15,0
1,0.17,-17.15,37.57,50,-39,15,0
1,0.17,15.96,37.57,50,-40,15,0
1,0.17,-24.77,37.57,50,-39,15,0
1,0.17,32.74,37.57,50,-39,15,0
1,0.17,-26.33,37.57,50,-39,15,0
1,0.17,32.39,37.57,50,-39,15,0
1,0.17,-1.15,37.57,50,-39,15,0
1,0.17,12.23,37.55,50,-39,15,0
1,0.17,4.97,37.55,50,-39,15,0
1,0.17,-32.61,37.55,50,-39,15,0
1,0.17,6.87,37.55,50,-39,15,0
1,0.17,-24.74,37.53,50,-39,15,0
1,0.17,25,37.53,50,-39,15,0
1,0.17,-0.49,37.53,50,-39,15,0
1,0.17,33.64,37.53,50,-39,15,0
1,0.17,-10.58,37.5,50,-39,15,0
1,0.17,-28.79,37.5,50,-39,15,0
1,0.17,9.49,37.5,50,-39,15,0
1,0.17,-22.59,37.5,51,-39,14,0
1,0.17,33.75,37.53,51,-39,14,0
1,0.17,-8.22,37.53,50,-39,15,0
1,0.18,1.8,37.53,50,-39,14,0
1,0.17,2.38,37.53,50,-39,15,0
1,0.18,-44.03,37.5,50,-39,15,0
1,0.18,2.95,37.5,50,-39,15,0
1,0.18,-24.54,37.5,50,-39,15,0
1,0.18,28.57,37.5,50,-39,15,0
1,0,-0.03,33.55,28,55,-5,0
1,0.2,5.06,33.55,32,55,-8,0
1,0.28,17.91,33.55,30,55,-9,0
1,0.27,79.34,33.55,32,55,-7,0
1,0.27,228.25,33.55,32,55,-8,0
1,0.27,-486.5,33.55,31,55,-7,0
1,0.27,-5.9,33.55,30,55,-5,0
1,0.27,156.15,33.55,30,56,-7,0
1,0.27,46.78,33.57,29,56,-8,0
1,0.27,4.05,33.57,30,56,-6,0
1,0.27,0.16,33.57,30,57,-8,0
1,0.27,0.84,33.57,31,56,-5,0
1,0.27,3.69,33.57,28,56,-5,0
1,0.27,14.59,33.57,29,56,-4,0
1,0.27,14.55,33.57,34,56,-7,0
1,0.28,-13.63,33.57,31,55,-4,0
1,0.27,17.78,33.53,31,55,-1,0
1,0.28,73.44,33.53,31,55,-2,0
1,0.28,106.08,33.53,30,54,-2,0
1,0.28,-214.99,33.53,31,55,-1,0
1,0.28,-37.17,33.53,33,56,0,0
1,0.28,102.22,33.53,29,55,0,0
1,0.28,-26.48,33.53,30,55,-1,0
1,0.28,-34.77,33.53,31,56,-4,0
1,0.28,51.44,33.53,29,56,-2,0
1,0.28,18.79,33.53,29,56,1,0
1,0.29,-43.58,33.53,22,56,8,0
1,0.28,6.81,33.53,30,58,10,0
1,0.28,-127.94,33.53,28,56,10,0
1,0.29,-109.55,33.53,26,53,22,0
1,0.29,105.99,33.53,23,55,18,0
1,0.28,52.74,33.53,31,60,-9,0
1,0.28,147.03,33.55,12,45,-18,0
1,0.28,-75.76,33.55,26,53,-26,0
1,0.28,-100.79,33.55,22,55,-31,0
1,0.27,-213.27,33.55,22,53,-26,0
1,0.26,551.14,33.55,29,54,-25,0
1,0.27,210.81,33.55,31,51,-16,0
1,0.26,-198.65,33.55,31,52,-16,0
1,0.26,-215.47,33.55,32,53,-18,0
1,0.26,47.13,33.59,31,53,-21,0
1,0.27,-57.33,33.59,27,52,-21,0
1,0.27,-4.81,33.59,31,53,-23,0
1,0.27,-41.44,33.59,33,53,-16,0
1,0.27,-36.57,33.53,33,53,-18,0
1,0.27,25.25,33.53,30,52,-18,0
1,0.27,98.09,33.53,32,52,-19,0
1,0.27,-60.94,33.53,31,52,-19,0
1,0.28,55.54,33.43,33,52,-17,0
1,0.27,37.19,33.43,31,52,-14,0
1,0.27,13.15,33.43,31,52,-14,0
1,0.27,122.31,33.43,32,53,-16,0
1,0.27,-44.66,33.37,31,53,-17,0
1,0.27,36.82,33.37,32,53,-18,0
1,0.27,-46.66,33.37,34,51,-18,0
1,0.27,68.05,33.37,35,53,-20,0
1,0,-0.03,31.13,-40,-21,48,0
1,0.14,5.06,31.13,-41,-21,47,0
1,0.21,17.91,31.13,-41,-21,47,0
1,0.21,79.34,31.13,-40,-22,48,0
1,0.21,228.25,31.13,-40,-22,47,0
1,0.21,-486.45,31.13,-41,-22,47,0
1,0.21,-4.89,31.13,-41,-22,48,0
1,0.21,160.66,31.13,-40,-21,47,0
1,0.21,65.34,31.13,-41,-21,47,0
1,0.21,31.67,31.13,-41,-22,47,0
1,0.22,-22.95,31.13,-40,-22,47,0
1,0.22,16.04,31.13,-41,-22,48,0
1,0.22,78.89,31.13,-41,-21,47,0
1,0.22,153.91,31.13,-41,-22,47,0
1,0.22,55.47,31.13,-41,-21,47,0
1,0.22,8.07,31.13,-41,-21,48,0
1,0.22,-5.07,31.11,-41,-22,47,0
1,0.22,-5.08,31.11,-41,-22,47,0
1,0.22,-8.75,31.11,-41,-22,47,0
1,0.22,-2.33,31.11,-41,-22,47,0
1,0.22,-17.7,31.11,-41,-21,48,0
1,0.22,-42.84,31.11,-42,-22,47,0
1,0.22,-152.49,31.11,-41,-22,47,0
1,0.22,-458.64,31.11,-41,-22,47,0
1,0.22,-381.94,31.11,-41,-22,47,0
1,0.22,-107.84,31.11,-41,-21,48,0
1,0.23,56.43,31.11,-41,-22,47,0
1,0.22,143.95,31.11,-42,-22,47,0
1,0.22,357.47,31.07,-41,-22,47,0
1,0.22,181.34,31.07,-41,-22,47,0
1,0.22,25.21,31.07,-41,-22,47,0
1,0.22,1.96,31.07,-41,-22,47,0
1,0.22,0.25,31.09,-41,-22,47,0
1,0.23,3.77,31.09,-41,-22,47,0
1,0.22,1.06,31.09,-43,-22,46,0
1,0.22,-2.41,31.09,-42,-21,46,0
1,0.22,4.1,31.11,-42,-21,47,0
1,0.22,-19.91,31.11,-40,-21,48,0
1,0.22,-60.22,31.11,-40,-21,48,0
1,0.22,-71.39,31.11,-40,-21,48,0
1,0.22,-93.51,31.09,-40,-21,49,0
1,0.22,201.1,31.09,-42,-21,48,0
1,0.22,129.47,31.09,-39,-22,51,0
1,0.22,5.23,31.09,-39,-21,49,0
1,0.22,29.57,31.05,-39,-21,49,0
1,0.22,-26.41,31.05,-38,-22,48,0
1,0.22,2.53,31.05,-39,-21,49,0
1,0.22,-29.47,31.05,-39,-21,49,0
1,0.22,-12.29,31.07,-38,-21,49,0
1,0.22,18.59,31.07,-39,-21,49,0
1,0.22,-28.39,31.07,-38,-21,51,0
1,0.22,2.22,31.07,-37,-21,51,0
1,0.22,26.22,31.03,-37,-21,51,0
1,0.22,7.11,31.03,-37,-21,51,0
1,0.22,15.06,31.03,-36,-21,51,0
1,0.22,-17.75,31.03,-36,-20,51,0
1,0,-0.03,29.53,47,42,-14,0
1,0.02,5.06,29.53,44,44,-8,0
1,0.04,17.91,29.53,43,46,-4,0
1,0.04,79.34,29.53,43,47,-4,0
1,0.04,228.25,29.53,43,47,-4,0
1,0.04,-486.42,29.53,44,48,-5,0
1,0.04,-4.78,29.53,44,47,-4,0
1,0.04,161.19,29.53,43,47,-5,0
1,0.04,67.02,29.57,44,47,-5,0
1,0.04,27.54,29.57,45,47,-5,0
1,0.04,-22.57,29.57,37,48,-8,0
1,0.04,18.56,29.57,43,49,-5,0
1,0.04,81.09,29.59,44,47,-6,0
1,0.04,126.34,29.59,43,47,-7,0
1,0.04,23,29.59,43,48,-8,0
1,0.04,23.05,29.59,44,49,-6,0
1,0.04,-180.02,29.65,40,50,-7,0
1,0.04,-230.97,29.65,36,52,-8,0
1,0.04,-31.93,29.65,41,52,-5,0
1,0.04,-29.35,29.65,42,50,-8,0
1,0.04,90.54,29.57,39,49,-8,0
1,0.04,5.97,29.57,41,49,-7,0
1,0.04,-11.51,29.57,39,50,-7,0
1,0.04,-65.28,29.57,41,50,-6,0
1,0.04,25.92,29.49,39,50,-6,0
1,0.04,-46.16,29.49,39,51,-6,0
1,0.04,-52.27,29.49,37,52,-5,0
1,0.04,78.72,29.49,37,52,-5,0
1,0.04,-30.37,29.45,36,51,-6,0
1,0.04,31.76,29.45,35,53,-5,0
1,0.04,119.41,29.45,36,52,-8,0
1,0.04,1.81,29.45,40,51,-4,0
1,0.04,-147.79,29.41,39,51,-5,0
1,0.04,-197.28,29.41,41,50,-5,0
1,0.04,188.48,29.41,41,49,-5,0
1,0.04,100.06,29.41,41,49,-6,0
1,0.03,-329.4,29.35,40,49,-5,0
1,0.04,-378.69,29.35,41,50,-6,0
1,0.03,72.03,29.35,35,50,-5,0
1,0.03,109.66,29.35,38,51,-8,0
1,0.03,101.9,29.37,33,52,-7,0
1,0.03,-12.52,29.37,35,52,-7,0
1,0.03,64.9,29.37,39,52,-7,0
1,0.03,81.09,29.37,37,51,-6,0
1,0.03,-19.37,29.37,38,52,-4,0
1,0.03,-191.96,29.37,46,49,-4,0
1,0.03,-30.47,29.37,46,47,0,0
1,0.03,188.83,29.37,44,50,-7,0
1,0.03,241.78,29.33,36,50,-8,0
1,0.03,284.61,29.33,39,50,-6,0
1,0.03,-138.06,29.33,37,50,-7,0
1,0.03,-404.88,29.33,38,51,-10,0
1,0.03,-7.17,29.35,41,50,-9,0
1,0.03,-276.61,29.35,39,50,-7,0
1,0.03,-242.55,29.35,38,49,-6,0
1,0.03,117.23,29.35,39,50,-9,0
1,0,-0.03,28.83,8,-1,63,0
1,0.07,5.06,28.83,9,-2,66,0
1,0.12,17.91,28.83,8,-2,63,0
1,0.12,79.34,28.83,20,-1,59,0
1,0.12,228.25,28.83,17,-2,63,0
1,0.12,-486.5,28.83,14,-2,63,0
1,0.12,-5.9,28.83,15,-2,63,0
1,0.12,156.15,28.83,16,-3,61,0
1,0.12,46.78,28.77,17,-1,64,0
1,0.12,4.05,28.77,15,-2,63,0
1,0.12,0.12,28.77,16,-1,61,0
1,0.12,0.66,28.77,12,-2,62,0
1,0.12,2.66,28.77,7,-2,64,0
1,0.12,11.48,28.77,4,-2,61,0
1,0.13,20.75,28.77,7,0,64,0
1,0.12,-22.13,28.77,5,-2,64,0
1,0.12,28.64,28.73,5,-3,65,0
1,0.13,42.83,28.73,7,-2,64,0
1,0.12,25.9,28.73,5,-3,64,0
1,0.13,-166.29,28.73,9,-3,63,0
1,0.13,11.85,28.75,9,-2,63,0
1,0.12,32.16,28.75,10,-3,63,0
1,0.13,13.52,28.75,12,-2,63,0
1,0.13,6.76,28.75,11,-2,63,0
1,0.13,6.3,28.73,18,-2,62,0
1,0.13,1.04,28.73,5,-5,67,0
1,0.13,-1.44,28.73,15,-4,65,0
1,0.13,-7.96,28.73,17,-3,64,0
1,0.13,27.95,28.75,16,-1,60,0
1,0.13,84.74,28.75,11,-1,63,0
1,0.13,-38.31,28.75,9,-3,63,0
1,0.13,50.72,28.75,12,-2,64,0
1,0.13,-96.01,28.73,12,-3,64,0
1,0.13,-46.13,28.73,13,-3,64,0
1,0.13,62.62,28.73,15,-1,62,0
1,0.13,-16.32,28.73,13,-1,66,0
1,0.13,7.43,28.75,12,-2,61,0
1,0.13,14.91,28.75,12,-3,62,0
1,0.13,19.09,28.75,8,-4,64,0
1,0.13,42.24,28.75,9,-1,65,0
1,0.13,-19.55,28.75,10,-3,63,0
1,0.13,-89.75,28.75,10,-2,64,0
1,0.12,-19.46,28.75,11,-2,64,0
1,0.13,57.42,28.75,10,-2,63,0
1,0.13,-13.06,28.73,12,-1,62,0
1,0.13,-18.42,28.73,12,-4,59,0
1,0.13,5.22,28.73,15,-1,62,0
1,0.13,13.92,28.73,14,-2,62,0
1,0.13,-15.85,28.71,13,-3,63,0
1,0.13,6.93,28.71,10,-4,64,0
1,0.13,32.51,28.71,10,-2,61,0
1,0.13,-17.37,28.71,10,-3,64,0
1,0.13,-6.46,28.71,10,-3,63,0
1,0.13,-18.71,28.71,11,-2,63,0
1,0.13,49.05,28.71,10,-3,63,0
1,0.13,-10.35,28.71,12,-1,63,0
1,0,-0.03,29.89,23,-22,56,2
1,0.13,5.06,29.89,23,-22,56,2
1,0.2,17.91,29.89,23,-22,57,2
1,0.2,79.34,29.89,23,-22,57,2
1,0.2,228.25,29.89,23,-22,57,2
1,0.2,-486.5,29.89,23,-22,56,2
1,0.2,-5.9,29.89,23,-22,57,2
1,0.2,156.15,29.89,23,-22,56,2
1,0.2,46.78,29.87,24,-22,57,2
1,0.2,4.05,29.87,23,-21,57,2
1,0.2,0.17,29.87,23,-22,56,2
1,0.2,0.86,29.87,23,-21,57,2
1,0.2,3.82,29.85,23,-22,56,2
1,0.2,14.88,29.85,23,-22,56,2
1,0.2,12.35,29.85,24,-22,56,2
1,0.2,-12.66,29.85,23,-22,56,2
1,0.2,16.71,29.87,24,-22,56,2
1,0.2,67.6,29.87,24,-22,57,2
1,0.2,48.23,29.87,23,-22,57,2
1,0.2,-264.8,29.87,23,-22,56,2
1,0.2,-9.66,29.85,23,-21,56,2
1,0.2,28.54,29.85,23,-22,57,2
1,0.2,20.49,29.85,23,-21,56,2
1,0.2,3.34,29.85,24,-22,57,2
1,0.2,4.41,29.83,24,-22,56,2
1,0.21,4.84,29.83,23,-22,57,2
1,0.21,0.54,29.83,24,-22,56,2
1,0.2,4.08,29.83,23,-22,56,2
1,0.2,2.92,29.83,23,-22,56,2
1,0.2,6.33,29.83,23,-22,56,2
1,0.2,6.96,29.83,23,-21,56,2
1,0.2,-5.91,29.83,23,-22,56,2
1,0.2,-1.16,29.83,23,-22,56,2
1,0.2,1.52,29.83,23,-22,56,2
1,0.2,-12.16,29.83,24,-21,57,2
1,0.2,1.7,29.83,23,-22,56,2
1,0.2,1.19,29.81,23,-22,56,2
1,0.2,-0.15,29.81,23,-21,56,2
1,0.2,3.89,29.81,24,-22,56,2
1,0.2,0.77,29.81,23,-22,56,2
1,0.21,3.08,29.79,23,-22,57,2
1,0.2,2.94,29.79,23,-22,57,2
1,0.2,-8.26,29.79,24,-22,56,2
1,0.21,-3.59,29.79,24,-22,57,2
1,0.2,1.68,29.79,23,-21,56,2
1,0.21,-2.38,29.79,24,-21,56,2
1,0.2,11.78,29.79,24,-21,56,2
1,0.2,-2.28,29.79,24,-22,56,2
1,0.21,-26.94,29.81,24,-22,56,2
1,0.2,9.02,29.81,24,-22,56,2
1,0.2,-11.49,29.81,24,-22,56,2
1,0.2,7.4,29.81,24,-22,56,2
1,0.2,7.35,29.79,24,-21,56,2
1,0.2,-4.57,29.79,24,-22,56,2
1,0.2,-0.71,29.79,24,-21,56,2
1,0.21,10.91,29.79,24,-21,56,2
1,0,-0.03,33.61,61,11,32,1
1,0.05,5.06,33.61,53,15,33,1
1,0.09,17.91,33.61,49,17,36,1
1,0.08,79.34,33.61,49,16,37,1
1,0.08,228.25,33.61,51,16,37,1
1,0.08,-486.5,33.61,51,16,37,1
1,0.08,-5.9,33.61,51,16,37,1
1,0.08,156.15,33.61,51,16,37,1
1,0.08,46.78,33.59,51,15,36,1
1,0.08,4.05,33.59,51,15,37,1
1,0.08,0.18,33.59,51,15,37,1
1,0.08,0.89,33.59,51,15,37,1
1,0.08,3.97,33.59,51,15,37,1
1,0.08,15.32,33.59,51,15,37,1
1,0.08,10.44,33.59,51,16,37,1
1,0.09,-12.15,33.59,51,15,37,1
1,0.08,16.78,33.57,51,15,37,1
1,0.08,63.4,33.57,51,15,36,1
1,0.08,36.21,33.57,51,15,37,1
1,0.08,-235.1,33.57,51,15,36,1
1,0.08,5.02,33.59,51,15,37,1
1,0.08,38.31,33.59,52,15,37,1
1,0.08,4.2,33.59,51,15,37,1
1,0.08,15.16,33.59,52,15,37,1
1,0.08,8.86,33.57,51,15,37,1
1,0.08,-12.43,33.57,51,15,37,1
1,0.09,18.27,33.57,52,15,36,1
1,0.08,3.95,33.57,51,15,36,1
1,0.08,-20.32,33.57,51,15,37,1
1,0.08,17.72,33.57,52,15,37,1
1,0.08,3.23,33.57,51,15,37,1
1,0.08,-11.97,33.57,51,14,37,1
1,0.08,13.28,33.57,51,15,37,1
1,0.08,-2.24,33.57,48,15,36,1
1,0.08,-2.08,33.57,52,18,33,1
1,0.08,9.08,33.57,50,19,36,1
1,0.08,-3.64,33.55,48,20,39,1
1,0.08,9.71,33.55,45,21,40,1
1,0.08,19.33,33.55,50,20,37,1
1,0.08,-24.67,33.55,50,20,36,1
1,0.08,8.96,33.55,49,20,35,1
1,0.08,26.36,33.55,56,22,28,1
1,0.08,24.34,33.55,58,23,23,1
1,0.08,-5.4,33.55,55,23,23,1
1,0.08,2.19,33.57,58,23,21,1
1,0.08,-48.58,33.57,57,23,20,1
1,0.08,-59.13,33.57,54,24,26,1
1,0.08,38.24,33.57,53,25,27,1
1,0.08,14.67,33.55,53,24,27,1
1,0.08,19.89,33.55,52,25,28,1
1,0.08,7.55,33.55,56,25,23,1
1,0.08,-39.42,33.55,56,26,17,1
1,0.08,-15.67,33.55,58,26,9,1
1,0.08,-18.26,33.55,59,26,4,1
1,0.08,9.62,33.55,61,26,3,1
1,0.09,66.28,33.55,59,26,1,1
2,0,-0.03,34,33,41,37,0
2,0.08,5.06,34,30,35,34,0
2,0.13,17.91,34,38,35,40,0
2,0.12,79.34,34,40,32,41,0
2,0.13,228.25,34,43,34,32,0
2,0.13,-486.5,34,49,29,30,0
2,0.13,-5.9,34,45,33,38,0
2,0.13,156.15,34,35,32,42,0
2,0.13,46.78,34,31,25,48,0
2,0.13,4.05,34,23,29,53,0
2,0.13,0.18,34,20,29,57,0
2,0.13,0.86,34,-16,36,51,0
2,0.13,3.8,33.99,-27,36,43,0
2,0.13,14.51,33.99,-43,38,28,0
2,0.13,10.15,33.99,-45,40,27,0
2,0.13,-20.65,33.99,-46,39,27,0
2,0.13,-18.52,33.99,-45,38,26,0
2,0.13,51.07,33.99,-45,37,28,0
2,0.13,-17.26,33.99,-45,37,28,0
2,0.12,22.79,33.99,-45,37,28,0
2,0.12,-41.36,33.97,-46,37,28,0
2,0.13,19.7,33.97,-46,37,28,0
2,0.13,11.73,33.97,-46,37,28,0
2,0.13,-78.94,33.97,-47,38,28,0
2,0.13,70.57,33.97,-43,37,35,0
2,0.13,-26.12,33.97,-18,37,52,0
2,0.13,7.69,33.97,15,25,47,0
2,0.12,-22.44,33.97,23,10,65,0
2,0.12,-175.32,33.97,46,13,45,0
2,0.12,47.14,33.97,46,14,43,0
2,0.13,15.22,33.97,60,29,24,0
2,0.12,53.85,33.97,51,16,27,0
2,0.04,94.61,33.95,51,12,35,0
2,0.03,15.23,33.95,51,14,38,0
2,0.09,57.51,33.95,55,9,46,0
2,0.04,-191.73,33.95,53,6,33,0
2,0.03,-18.37,33.97,47,8,45,0
2,0.03,32.11,33.97,54,7,49,0
2,0.03,207.79,33.97,53,4,41,0
2,0.11,507.71,33.97,47,9,42,0
2,0.03,-595.12,33.15,44,8,50,0
2,0.03,-263.03,33.15,41,69,97,0
2,0.03,166.21,33.15,51,17,32,0
2,0.07,45.27,33.15,56,19,32,0
2,0.13,14.59,33.81,54,16,29,0
2,0.13,56.63,33.81,55,15,28,0
2,0.14,-66.82,33.81,57,15,19,0
2,0.15,40.1,33.81,75,25,23,0
2,0.16,3.01,33.81,52,20,26,0
2,0.16,4.61,33.81,57,14,31,0
2,0.16,-8.65,33.81,52,13,27,0
2,0.17,-33.42,33.81,59,19,14,0
2,0.17,-91.36,33.84,51,24,23,0
2,0.16,-39.26,33.84,87,7,13,0
2,0.17,189.38,33.84,57,31,9,0
2,0.17,140.59,33.84,66,30,4,0
2,0,-0.03,34.57,11,-48,43,0
2,0.83,5.06,34.57,12,-48,43,0
2,1.18,17.91,34.57,11,-47,43,0
2,1.1,79.34,34.57,11,-47,43,0
2,1.14,228.25,34.57,11,-47,43,0
2,1.17,-486.5,34.57,11,-48,43,0
2,1.19,-5.9,34.57,11,-47,43,0
2,1.2,156.15,34.57,11,-48,42,0
2,1.2,46.78,34.55,11,-47,42,0
2,1.19,4.05,34.55,12,-48,43,0
2,1.17,0.17,34.55,11,-48,43,0
2,1.15,0.88,34.55,11,-48,42,0
2,1.14,3.88,34.57,12,-48,42,0
2,1.12,14.5,34.57,11,-48,42,0
2,1.11,9.1,34.57,11,-48,42,0
2,1.1,-30.73,34.57,11,-48,42,0
2,1.09,-37.51,34.57,11,-48,42,0
2,1.08,31.12,34.57,12,-48,42,0
2,1.07,21.56,34.57,11,-48,42,0
2,1.06,7.56,34.57,10,-48,43,0
2,1.06,-23.03,34.59,11,-48,42,0
2,1.05,24.75,34.59,11,-48,43,0
2,1.05,3.37,34.59,10,-48,43,0
2,1.04,-3.79,34.59,11,-48,43,0
2,1.05,11.24,34.55,10,-48,42,0
2,1.05,-12.26,34.55,11,-48,42,0
2,1.06,16.06,34.55,12,-48,42,0
2,1.07,-3.01,34.55,10,-48,42,0
2,1.07,-41.92,34.53,11,-48,42,0
2,1.06,-25.8,34.53,11,-48,42,0
2,1.06,-42.86,34.53,11,-48,42,0
2,1.05,69.66,34.53,11,-48,42,0
2,1.04,36.09,34.55,11,-48,42,0
2,1.04,-3.27,34.55,11,-48,43,0
2,1.03,16.02,34.55,11,-48,43,0
2,1.03,7.07,34.55,11,-48,42,0
2,1.03,-1.28,34.57,11,-48,43,0
2,1.03,12.85,34.57,10,-48,42,0
2,1.03,-9.89,34.57,11,-48,42,0
2,1.03,-1.53,34.57,11,-48,42,0
2,1.03,-14.51,34.55,11,-47,42,0
2,1.03,-31.4,34.55,11,-48,42,0
2,1.04,0.17,34.55,10,-47,43,0
2,1.07,-0.81,34.55,9,-48,42,0
2,1.1,-6.92,34.55,9,-48,42,0
2,1.15,19.2,34.55,10,-48,43,0
2,1.19,15.24,34.55,10,-48,43,0
2,1.23,1.11,34.55,9,-48,43,0
2,1.27,-28.88,34.55,10,-48,42,0
2,1.3,-22.06,34.55,9,-48,42,0
2,1.32,9.36,34.55,8,-48,43,0
2,1.33,12.82,34.55,9,-48,43,0
2,1.33,24.06,34.53,8,-48,43,0
2,1.31,10.96,34.53,8,-48,43,0
2,1.29,-14.89,34.53,9,-48,43,0
2,1.28,9.95,34.53,9,-48,43,0
2,0,-0.03,34.33,30,8,56,0
2,0.34,5.06,34.33,30,8,56,0
2,0.41,17.91,34.33,30,8,56,0
2,0.4,79.34,34.33,30,8,56,0
2,0.4,228.25,34.33,30,8,56,0
2,0.4,-486.5,34.33,30,8,56,0
2,0.4,-5.9,34.33,29,9,57,0
2,0.4,156.15,34.33,29,8,57,0
2,0.4,46.78,34.31,26,7,58,0
2,0.4,4.05,34.31,12,6,63,0
2,0.4,0.13,34.31,11,6,63,0
2,0.41,0.59,34.31,14,5,63,0
2,0.41,2.31,34.31,14,4,63,0
2,0.41,8.34,34.31,15,3,63,0
2,0.41,-3.93,34.31,13,4,63,0
2,0.41,0.7,34.31,14,3,63,0
2,0.41,14.3,34.31,11,8,59,0
2,0.41,-5.02,34.31,-16,4,61,0
2,0.4,-16.92,34.31,-22,-6,69,0
2,0.4,16.16,34.31,-17,-4,66,0
2,0.43,11.78,34.31,-15,-2,64,0
2,0.42,-10.7,34.31,-13,1,63,0
2,0.42,-3.61,34.31,-11,3,63,0
2,0.42,215.54,34.31,-10,3,64,0
2,0.42,-58.78,34.29,-9,2,64,0
2,0.42,-86.67,34.29,-9,2,64,0
2,0.41,104.09,34.29,-12,2,63,0
2,0.41,-50.3,34.29,-9,2,63,0
2,0.41,-111.04,34.31,-7,0,65,0
2,0.41,-23.78,34.31,-6,2,64,0
2,0.41,-19.05,34.31,-10,1,64,0
2,0.41,-4.75,34.31,-8,-1,62,0
2,0.41,15.26,34.31,-6,4,65,0
2,0.41,-6.24,34.31,-13,0,64,0
2,0.41,14.92,34.31,-13,2,55,0
2,0.4,32.4,34.31,-6,-2,66,0
2,0.39,-8.83,34.29,-13,0,64,0
2,0.38,-9.22,34.29,0,5,67,0
2,0.38,9.47,34.29,1,18,63,0
2,0.38,-22.35,34.29,7,35,45,0
2,0.36,11.69,34.29,12,40,47,0
2,0.35,14.36,34.29,27,41,37,0
2,0.35,13.91,34.29,37,42,26,0
2,0.33,41.78,34.29,53,48,7,0
2,0.34,-22.5,34.31,44,42,14,0
2,0.34,60.89,34.31,47,42,13,0
2,0.34,-85.55,34.31,48,42,10,0
2,0.34,-6.24,34.31,47,42,11,0
2,0.34,55.66,34.31,45,42,11,0
2,0.33,49.64,34.31,47,43,12,0
2,0.34,5.26,34.31,45,42,17,0
2,0.34,-6.71,34.31,46,42,16,0
2,0.34,-28.11,34.33,45,43,16,0
2,0.34,-3.12,34.33,46,44,11,0
2,0.34,9.58,34.33,46,43,11,0
2,0.34,-31.86,34.33,46,43,13,0
2,0,-0.03,32.87,-13,-8,69,0
2,0.25,5.06,32.87,16,28,43,0
2,0.24,17.91,32.87,26,50,18,0
2,0.21,79.34,32.87,16,62,13,0
2,0.2,228.25,32.87,8,61,25,0
2,0.19,-486.5,32.87,5,59,25,0
2,0.22,-5.9,32.87,2,59,24,0
2,0.23,156.15,32.87,6,59,25,0
2,0.23,46.78,32.87,8,59,22,0
2,0.23,4.05,32.87,-23,56,22,0
2,0.23,0.09,32.87,-25,49,32,0
2,0.23,0.47,32.87,-25,41,43,0
2,0.24,2.01,32.84,-18,40,47,0
2,0.25,9.01,32.84,-22,39,47,0
2,0.25,24.62,32.84,-17,42,43,0
2,0.26,-17.02,32.84,-20,41,45,0
2,0.26,-1.86,32.79,-15,37,51,0
2,0.26,21.83,32.79,-9,43,49,0
2,0.26,84.21,32.79,-15,41,46,0
2,0.27,-143.88,32.79,-16,40,48,0
2,0.27,-36.41,32.83,-10,40,47,0
2,0.28,50.72,32.83,-10,40,54,0
2,0.27,17.02,32.83,-5,43,46,0
2,0.27,12.63,32.83,-3,38,53,0
2,0.27,134.98,32.84,-4,39,51,0
2,0.28,-32.9,32.84,-4,39,50,0
2,0.28,-120.94,32.84,-5,39,50,0
2,0.28,-108.21,32.84,-4,39,49,0
2,0.28,50.55,32.87,-4,39,50,0
2,0.29,20.98,32.87,-3,39,50,0
2,0.29,21.71,32.87,-3,40,50,0
2,0.29,-14.22,32.87,-4,39,50,0
2,0.29,-0.86,32.89,-3,40,49,0
2,0.29,-29.01,32.89,-3,39,50,0
2,0.29,7.54,32.89,-6,39,50,0
2,0.29,-14.59,32.89,16,37,38,0
2,0.29,-4.39,32.89,47,35,42,0
2,0.28,-20.19,32.89,31,41,38,0
2,0.28,-18.25,32.89,5,43,43,0
2,0.28,-32.34,32.89,-4,35,53,0
2,0.29,89.76,32.91,-6,36,52,0
2,0.29,25.61,32.91,-9,40,48,0
2,0.29,-122.52,32.91,-8,40,49,0
2,0.29,-34.4,32.91,-7,42,47,0
2,0.29,131.83,32.93,-16,37,49,0
2,0.29,-76.54,32.93,-6,41,49,0
2,0.29,-29.86,32.93,-7,41,48,0
2,0.29,53.58,32.93,-5,41,48,0
2,0.3,-4.92,32.91,-4,41,48,0
2,0.29,17.95,32.91,-4,40,49,0
2,0.29,12.39,32.91,-3,40,49,0
2,0.29,-7.22,32.91,2,41,48,0
2,0.3,-4.47,32.93,-1,42,48,0
2,0.31,-6.56,32.93,-8,40,47,0
2,0.31,-34.73,32.93,-6,41,49,0
2,0.31,-87.55,32.93,6,41,49,0
2,0,-0.03,34.18,-13,-1,65,0
2,0.17,5.06,34.18,-20,3,63,0
2,0.23,17.91,34.18,-22,-1,55,0
2,0.29,79.34,34.18,-15,-5,61,0
2,0.31,228.25,34.18,-13,0,64,0
2,0.3,-486.5,34.18,-25,3,60,0
2,0.3,-5.9,34.18,-15,-1,63,0
2,0.3,156.15,34.18,-20,5,57,0
2,0.3,46.78,34.18,-9,5,63,0
2,0.29,4.05,34.18,-8,3,60,0
2,0.29,0.16,34.18,49,4,40,0
2,0.27,0.65,34.18,69,12,2,0
2,0.27,2.91,34.16,67,15,-7,0
2,0.28,11.32,34.16,63,22,-2,0
2,0.29,9.13,34.16,58,28,3,0
2,0.29,-1.72,34.16,56,32,7,0
2,0.29,19.26,34.18,58,34,7,0
2,0.29,72.5,34.18,53,35,7,0
2,0.29,92.27,34.18,56,31,7,0
2,0.29,-251.18,34.18,53,27,8,0
2,0.3,-51.79,34.16,58,25,21,0
2,0.29,25.88,34.16,52,21,27,0
2,0.28,11.77,34.16,51,20,37,0
2,0.28,-26.86,34.16,39,18,49,0
2,0.27,3.67,34.21,21,8,62,0
2,0.27,22.16,34.21,20,9,60,0
2,0.27,20.35,34.21,20,9,60,0
2,0.27,32.53,34.21,19,9,60,0
2,0.27,-5.43,34.16,22,8,61,0
2,0.28,-19.5,34.16,18,6,62,0
2,0.28,-22.18,34.16,11,7,62,0
2,0.28,10.79,34.16,8,9,63,0
2,0.28,-9.25,34.16,-5,3,63,0
2,0.27,3.73,34.16,-10,6,63,0
2,0.27,-18.15,34.16,-11,-1,64,0
2,0.26,-0.89,34.16,-16,-7,60,0
2,0.25,-20.89,34.18,-2,6,60,0
2,0.25,30.81,34.18,-9,7,62,0
2,0.26,56.86,34.18,-15,-10,70,0
2,0.26,-14.81,34.18,-7,10,58,0
2,0.26,-12.1,34.16,-22,-3,66,0
2,0.24,52.65,34.16,-23,2,55,0
2,0.27,-42.86,34.16,-22,-4,59,0
2,0.3,-25.74,34.16,-22,-6,66,0
2,0.31,76.94,34.15,-28,0,61,0
2,0.3,191.96,34.15,-30,0,59,0
2,0.3,-160.61,34.15,-29,2,59,0
2,0.32,-117.38,34.15,-29,2,58,0
2,0.33,-138.2,34.15,-27,4,59,0
2,0.34,-112.4,34.15,-25,5,60,0
2,0.34,136.29,34.15,-26,4,59,0
2,0.34,48.07,34.15,-27,5,59,0
2,0.34,-29.24,34.16,-28,4,59,0
2,0.34,-13.97,34.16,-28,2,58,0
2,0.34,4.68,34.16,-29,1,59,0
2,0.34,5.99,34.16,-25,-1,64,0
2,0,-0.03,35.47,12,49,37,0
2,0.4,5.06,35.47,12,49,37,0
2,0.49,17.91,35.47,13,51,35,0
2,0.52,79.34,35.47,11,51,35,0
2,0.52,228.25,35.47,12,51,36,0
2,0.52,-486.5,35.47,10,51,36,0
2,0.51,-5.9,35.47,11,51,36,0
2,0.5,156.15,35.47,10,50,37,0
2,0.48,46.78,35.47,11,50,36,0
2,0.47,4.05,35.47,11,49,38,0
2,0.46,0.24,35.47,11,48,40,0
2,0.45,1.04,35.47,13,47,41,0
2,0.45,4.75,35.47,14,45,43,0
2,0.44,17.42,35.47,13,45,42,0
2,0.44,1.53,35.47,13,45,42,0
2,0.44,-8.35,35.47,14,44,43,0
2,0.44,25.08,35.47,15,45,43,0
2,0.45,87.95,35.47,13,45,43,0
2,0.46,59.91,35.47,13,46,42,0
2,0.46,-283.7,35.47,15,46,41,0
2,0.47,-28.53,35.47,13,49,38,0
2,0.46,28.56,35.47,13,49,38,0
2,0.46,46.4,35.47,12,48,38,0
2,0.44,-5.24,35.47,13,48,39,0
2,0.44,61.56,35.45,13,50,34,0
2,0.43,-28.72,35.45,12,54,34,0
2,0.41,-11.8,35.45,4,53,34,0
2,0.4,-26.52,35.45,4,53,34,0
2,0.4,46.03,35.47,3,52,34,0
2,0.4,20.87,35.47,10,52,35,0
2,0.4,-74.13,35.47,15,50,39,0
2,0.4,-21.57,35.47,19,48,38,0
2,0.42,-9.42,35.43,18,46,40,0
2,0.42,-50.99,35.43,18,45,40,0
2,0.41,-132.69,35.43,19,46,40,0
2,0.41,170.93,35.43,21,45,38,0
2,0.4,139.3,35.41,20,45,40,0
2,0.41,26.24,35.41,17,44,41,0
2,0.4,-57.58,35.41,19,43,41,0
2,0.41,4.71,35.41,21,43,42,0
2,0.41,-9.08,35.45,23,44,40,0
2,0.41,13.51,35.45,21,46,36,0
2,0.42,-47.29,35.45,18,45,41,0
2,0.41,-64.82,35.45,13,46,41,0
2,0.4,-39.64,35.43,12,47,40,0
2,0.4,116.9,35.43,12,47,40,0
2,0.39,53.79,35.43,11,48,39,0
2,0.37,12.73,35.43,5,49,40,0
2,0.36,24.27,35.45,7,48,45,0
2,0.35,-15.49,35.45,3,50,38,0
2,0.35,11.57,35.45,30,54,17,0
2,0.35,-90.01,35.45,34,54,8,0
2,0.35,-60.33,35.43,33,55,7,0
2,0.35,8.51,35.43,31,56,7,0
2,0.34,-45.61,35.43,31,53,14,0
2,0.06,12.91,35.43,35,53,17,0
2,0,-0.03,32.5,42,-45,20,0
2,0.83,5.06,32.5,42,-45,20,0
2,1.18,17.91,32.5,42,-45,20,0
2,1.61,79.34,32.5,42,-45,20,0
2,2.09,228.25,32.5,42,-45,20,0
2,2.58,-486.5,32.5,42,-45,20,0
2,3.1,-5.9,32.5,42,-45,19,0
2,3.6,156.15,32.5,42,-45,20,0
2,4.09,46.78,32.53,42,-46,20,0
2,4.59,4.05,32.53,42,-45,20,0
2,4.99,0.14,32.53,42,-45,20,0
2,5.01,0.77,32.53,42,-46,20,0
2,5.01,3.35,32.53,42,-45,20,0
2,5,13.48,32.53,42,-45,21,0
2,4.99,16.84,32.53,42,-45,21,0
2,4.97,-15.22,32.53,42,-45,21,0
2,4.95,16.23,32.5,42,-45,21,0
2,4.92,69.77,32.5,42,-46,22,0
2,4.9,96.4,32.5,42,-45,22,0
2,4.87,-215.57,32.5,42,-45,21,0
2,4.85,-64.3,32.5,42,-45,21,0
2,4.83,65.1,32.5,42,-45,20,0
2,4.83,4.5,32.5,42,-45,20,0
2,4.85,3.41,32.5,42,-45,21,0
2,4.9,-21.72,32.49,42,-45,20,0
2,4.95,22.84,32.49,42,-45,20,0
2,4.99,-1.85,32.49,42,-46,20,0
2,4.98,29.71,32.49,42,-45,20,0
2,4.98,-16.72,32.55,42,-46,20,0
2,4.96,14.77,32.55,42,-46,20,0
2,4.93,-25.8,32.55,42,-45,20,0
2,4.91,10.99,32.55,42,-46,20,0
2,4.88,-26.64,32.5,42,-46,20,0
2,4.86,14.24,32.5,42,-45,19,0
2,4.84,-27.1,32.5,43,-46,20,0
2,4.82,3.88,32.5,42,-45,20,0
2,4.81,-32.85,32.49,42,-46,21,0
2,4.82,2.54,32.49,42,-45,21,0
2,4.84,-5.8,32.49,41,-45,21,0
2,4.91,1.79,32.49,42,-45,21,0
2,5.01,-4.41,32.53,41,-45,21,0
2,5.1,4.02,32.53,42,-45,21,0
2,5.14,-5.12,32.53,42,-45,21,0
2,5.16,18.87,32.53,42,-45,22,0
2,5.14,5.66,32.49,42,-45,21,0
2,5.12,7.04,32.49,42,-45,21,0
2,5.08,9.91,32.49,42,-45,21,0
2,5.05,-0.47,32.49,42,-44,19,0
2,5,15.07,32.49,44,-44,19,0
2,4.97,-12.42,32.49,46,-45,17,0
2,4.94,-17.89,32.49,44,-46,14,0
2,4.93,-12.88,32.49,45,-46,15,0
2,4.92,28.77,32.5,46,-42,17,0
2,4.9,-16.01,32.5,46,-43,16,0
2,4.89,-12.02,32.5,46,-44,15,0
2,4.87,15.23,32.5,46,-45,14,0
2,0,-0.03,34.91,-5,19,69,0
2,0.1,5.06,34.91,-15,4,65,0
2,0.15,17.91,34.91,-12,5,63,0
2,0.15,79.34,34.91,-11,6,64,0
2,0.15,228.25,34.91,-10,5,64,0
2,0.15,-486.5,34.91,-11,5,64,0
2,0.15,-5.9,34.91,-10,4,64,0
2,0.15,156.15,34.91,-7,5,64,0
2,0.15,46.78,34.89,-8,4,64,0
2,0.15,4.05,34.89,-8,2,64,0
2,0.15,0.16,34.89,-6,2,63,0
2,0.15,0.84,34.89,-7,-4,66,0
2,0.15,3.68,34.87,-3,-4,64,0
2,0.15,14.48,34.87,-2,-3,64,0
2,0.15,12.24,34.87,-2,-2,64,0
2,0.15,-24.52,34.87,0,-2,64,0
2,0.15,-22.13,34.84,1,-1,64,0
2,0.15,-15.19,34.84,2,0,64,0
2,0.15,18.39,34.84,2,0,65,0
2,0.15,12.65,34.84,2,0,64,0
2,0.15,-8.6,34.84,1,0,65,0
2,0.15,1.84,34.84,1,-1,64,0
2,0.15,0.71,34.84,2,-1,64,0
2,0.15,7.83,34.84,1,-1,64,0
2,0.15,-2.4,34.84,2,-1,64,0
2,0.15,2.15,34.84,2,-1,64,0
2,0.15,-5.28,34.84,1,-1,64,0
2,0.15,2.42,34.84,1,-2,64,0
2,0.15,-9.07,34.84,-1,-3,64,0
2,0.15,-1.41,34.84,-1,-3,64,0
2,0.15,-2.78,34.84,-3,-3,65,0
2,0.15,-9.05,34.84,-2,-5,64,0
2,0.15,9.02,34.83,-1,-5,64,0
2,0.15,3.77,34.83,0,-4,64,0
2,0.15,-2.48,34.83,0,-4,64,0
2,0.15,-3.29,34.83,1,-3,64,0
2,0.15,-7.15,34.83,1,-2,65,0
2,0.15,-19.4,34.83,0,-3,64,0
2,0.15,-31.67,34.83,1,-2,65,0
2,0.15,75.98,34.83,0,-3,64,0
2,0.15,20.36,34.81,1,-2,64,0
2,0.15,16.02,34.81,0,-2,64,0
2,0.15,-0.27,34.81,1,-3,64,0
2,0.15,19.24,34.81,0,-3,64,0
2,0.15,-2.61,34.81,0,-3,64,0
2,0.15,21.72,34.81,2,0,65,0
2,0.15,-8.95,34.81,2,0,64,0
2,0.15,21.05,34.81,2,0,65,0
2,0.15,12.37,34.79,2,0,64,0
2,0.15,38.71,34.79,1,0,64,0
2,0.15,-6.34,34.79,1,0,64,0
2,0.15,8.96,34.79,1,0,64,0
2,0.15,-10.54,34.77,1,0,64,0
2,0.15,7.52,34.77,1,0,64,0
2,0.15,-13.82,34.77,1,-1,64,0
2,0.15,14.56,34.77,1,0,65,0
2,0,-0.03,31.85,59,-11,-16,0
2,0.83,5.06,31.85,58,-2,-21,0
2,1.18,17.91,31.85,63,-3,-23,0
2,1.61,79.34,31.85,71,-11,-26,0
2,1.75,228.25,31.85,54,-6,-23,0
2,1.73,-486.5,31.85,53,-15,-23,0
2,1.72,-5.9,31.85,59,-10,-22,0
2,1.71,155.62,31.85,64,-10,-21,0
2,1.69,45.16,31.85,65,-12,-14,0
2,1.65,-3.27,31.85,69,-13,-13,0
2,1.67,-28.08,31.85,58,-24,-13,0
2,1.7,17.37,31.85,54,-2,-11,0
2,1.68,2.1,31.85,62,-5,-20,0
2,1.62,11.3,31.85,60,-7,-17,0
2,1.63,13.94,31.85,70,-2,-19,0
2,1.61,-15.12,31.85,65,-5,-21,0
2,1.63,-1.73,31.85,50,-7,-20,0
2,1.64,4.55,31.85,61,-3,-15,0
2,1.65,-4.29,31.85,66,0,-18,0
2,1.64,13.47,31.85,72,-7,-13,0
2,1.7,-55,31.87,62,-11,-9,0
2,1.82,-3.7,31.87,64,-3,-9,0
2,1.85,36.62,31.87,65,-7,-18,0
2,1.77,88.98,31.87,64,-8,-14,0
2,1.73,23.81,31.87,72,-13,-15,0
2,1.69,-22.19,31.87,59,-8,-13,0
2,1.68,-13.07,31.87,59,-6,-11,0
2,1.65,-2.3,31.87,65,-1,-15,0
2,1.62,-47.45,31.89,68,-2,-11,0
2,1.62,-26.67,31.89,78,-18,-6,0
2,1.68,-63.28,31.89,53,-9,-8,0
2,1.74,-30.42,31.89,72,0,-13,0
2,1.67,63.08,31.89,64,-3,-15,0
2,1.52,60.98,31.89,74,-3,-14,0
2,1.51,13.76,31.89,64,-12,-10,0
2,1.6,-13.4,31.89,63,-6,-14,0
2,1.67,38.96,31.91,64,-5,-17,0
2,1.71,-41.87,31.91,66,-6,-9,0
2,1.73,-52.62,31.91,74,-14,-9,0
2,1.73,-40.75,31.91,54,-28,-8,0
2,1.82,-21.96,31.89,62,-1,-6,0
2,1.81,30.88,31.89,64,-4,-14,0
2,1.77,36.35,31.89,63,-5,-18,0
2,1.74,44.27,31.89,73,-7,-12,0
2,1.73,-68.95,31.91,65,-7,-11,0
2,1.76,31.87,31.91,59,-4,-14,0
2,1.78,-3.4,31.91,57,1,-8,0
2,1.8,-15.43,31.91,66,-1,-10,0
2,1.79,-10.36,31.93,65,2,-10,0
2,1.78,-24.56,31.93,70,3,-17,0
2,1.77,6.9,31.93,64,-12,-15,0
2,1.79,11.4,31.93,57,-5,-12,0
2,1.82,19.13,31.93,59,2,-12,0
2,1.86,5.86,31.93,70,0,-17,0
2,1.88,29.43,31.93,68,-7,-19,0
2,1.9,-21.09,31.93,54,-4,-20,0
2,0,-0.03,33.63,65,10,6,0
2,0.06,5.06,33.63,64,12,6,0
2,0.09,17.91,33.63,65,12,7,0
2,0.09,79.34,33.63,64,12,7,0
2,0.09,228.25,33.63,66,11,6,0
2,0.1,-486.5,33.63,65,12,7,0
2,0.09,-5.9,33.63,65,12,7,0
2,0.1,156.15,33.63,65,11,7,0
2,0.09,46.78,33.61,65,12,7,0
2,0.1,4.05,33.61,65,11,7,0
2,0.1,0.19,33.61,64,11,7,0
2,0.1,0.74,33.61,64,11,7,0
2,0.1,3.07,33.61,65,11,6,0
2,0.1,10.4,33.61,65,12,7,0
2,0.1,-13.13,33.61,64,9,17,0
2,0.1,1.72,33.61,54,8,30,0
2,0.09,16.82,33.63,54,9,32,0
2,0.09,4.68,33.63,58,10,30,0
2,0.1,20.98,33.63,59,10,26,0
2,0.1,10.91,33.63,60,11,22,0
2,0.1,30.88,33.61,61,10,23,0
2,0.09,-33.84,33.61,60,10,23,0
2,0.1,8.15,33.61,60,12,24,0
2,0.1,-34.19,33.61,60,10,24,0
2,0.1,-23.26,33.61,60,11,24,0
2,0.1,1.45,33.61,59,11,23,0
2,0.1,-11.27,33.61,61,11,24,0
2,0.1,4.63,33.61,60,10,23,0
2,0.1,8.06,33.59,61,11,23,0
2,0.1,-4.37,33.59,60,10,22,0
2,0.1,8.73,33.59,61,11,23,0
2,0.1,5.17,33.59,60,11,23,0
2,0.1,-7.63,33.59,60,11,23,0
2,0.1,7.63,33.59,61,10,23,0
2,0.1,2.76,33.59,60,10,23,0
2,0.1,-6.6,33.59,61,10,23,0
2,0.1,8.99,33.59,61,10,23,0
2,0.1,0.19,33.59,61,10,23,0
2,0.1,-5.97,33.59,60,11,23,0
2,0.1,8.49,33.59,61,11,24,0
2,0.1,5.53,33.57,59,10,23,0
2,0.1,-4.28,33.57,60,11,24,0
2,0.1,-0.04,33.57,60,10,23,0
2,0.1,-0.84,33.57,60,10,23,0
2,0.1,-9.8,33.57,60,10,24,0
2,0.1,6.87,33.57,60,10,23,0
2,0.1,6.15,33.57,60,10,24,0
2,0.1,-8.66,33.57,60,10,24,0
2,0.1,8.8,33.57,60,10,24,0
2,0.1,-6.44,33.57,59,10,24,0
2,0.1,-5.79,33.57,60,10,24,0
2,0.1,4.96,33.57,61,10,23,0
2,0.1,-4,33.57,60,10,24,0
2,0.1,-11.45,33.57,60,10,24,0
2,0.1,6.65,33.57,61,11,24,0
2,0.1,2.21,33.57,60,10,24,0
2,0,-0.03,34.03,30,-18,55,0
2,0.32,5.06,34.03,30,-18,54,0
2,0.38,17.91,34.03,29,-19,54,0
2,0.37,79.34,34.03,30,-18,54,0
2,0.37,228.25,34.03,29,-18,55,0
2,0.38,-486.5,34.03,30,-18,54,0
2,0.38,-5.9,34.03,30,-18,55,0
2,0.38,156.15,34.03,30,-18,54,0
2,0.38,46.78,34.03,30,-18,54,0
2,0.38,4.05,34.03,30,-18,54,0
2,0.38,0.13,34.03,30,-18,54,0
2,0.38,0.73,34.03,30,-19,54,0
2,0.38,3.1,34.03,30,-19,54,0
2,0.38,12.75,34.03,30,-18,55,0
2,0.38,19.72,34.03,29,-19,54,0
2,0.38,-16.96,34.03,29,-18,55,0
2,0.38,9.55,34.05,29,-19,55,0
2,0.38,44.52,34.05,29,-19,55,0
2,0.38,23.77,34.05,30,-18,55,0
2,0.38,-92.88,34.05,29,-19,55,0
2,0.38,-5.75,34.05,30,-19,55,0
2,0.38,43.92,34.05,30,-19,54,0
2,0.38,38.37,34.05,30,-19,54,0
2,0.38,-52.84,34.05,30,-19,55,0
2,0.38,58,34.05,30,-19,54,0
2,0.38,-2.79,34.05,30,-19,55,0
2,0.38,-7.82,34.05,29,-19,55,0
2,0.38,5.24,34.05,30,-19,54,0
2,0.38,-56.27,34.05,30,-19,55,0
2,0.38,42.76,34.05,29,-19,55,0
2,0.38,-12.84,34.05,29,-19,55,0
2,0.38,0.6,34.05,29,-19,55,0
2,0.38,19.75,34,29,-19,54,0
2,0.38,-52.29,34,29,-19,54,0
2,0.38,32.62,34,29,-19,55,0
2,0.38,-6.11,34,29,-19,55,0
2,0.38,15.54,34.03,29,-19,55,0
2,0.38,8.27,34.03,29,-19,55,0
2,0.38,-50.36,34.03,29,-19,55,0
2,0.38,30.84,34.03,29,-19,55,0
2,0.38,-12.8,34.05,29,-19,54,0
2,0.38,-0.84,34.05,29,-19,55,0
2,0.38,11.87,34.05,29,-19,55,0
2,0.38,-44.03,34.05,29,-19,55,0
2,0.38,34.06,34.03,29,-19,55,0
2,0.38,-11.21,34.03,29,-19,55,0
2,0.38,-5.73,34.03,29,-19,55,0
2,0.38,8.51,34.03,29,-19,55,0
2,0.38,-47.84,34.03,29,-19,55,0
2,0.38,38.99,34.03,29,-19,55,0
2,0.37,-9.66,34.03,29,-19,55,0
2,0.37,-18.55,34.03,29,-19,55,0
2,0.37,28.82,34.03,29,-19,55,0
2,0.37,-37.33,34.03,28,-19,55,0
2,0.37,49.81,34.03,29,-19,55,0
2,0.38,-2.36,34.03,29,-19,55,0
2,0,-0.03,33.59,9,33,51,0
2,0.65,5.06,33.59,18,40,53,0
2,0.71,17.91,33.59,18,52,34,0
2,0.82,79.34,33.59,16,44,36,0
2,0.6,228.25,33.59,19,50,54,0
2,0.59,-486.5,33.59,21,30,56,0
2,0.61,-5.9,33.59,12,38,48,0
2,0.64,156.15,33.59,14,49,36,0
2,0.67,46.78,33.59,9,44,40,0
2,0.69,4.05,33.59,8,53,46,0
2,0.71,0.18,33.59,11,32,39,0
2,0.73,0.87,33.59,4,40,47,0
2,0.73,3.84,33.59,2,43,48,0
2,0.72,14.84,33.59,11,52,31,0
2,0.72,9.7,33.59,7,45,37,0
2,0.71,-11.66,33.59,1,53,45,0
2,0.7,21.06,33.57,9,34,41,0
2,0.69,75.34,33.57,0,46,45,0
2,0.69,78.18,33.57,0,47,48,0
2,0.67,-247.86,33.57,5,51,26,0
2,0.67,-31.07,33.53,4,49,38,0
2,0.65,11.62,33.53,2,52,41,0
2,0.65,1.58,33.53,-2,38,49,0
2,0.65,12.73,33.53,-6,37,51,0
2,0.65,-4.11,33.57,-16,41,46,0
2,0.65,32.79,33.57,-14,42,41,0
2,0.66,5.68,33.57,-11,46,44,0
2,0.66,31.86,33.57,-6,44,40,0
2,0.67,-7.28,33.55,11,47,55,0
2,0.68,15.43,33.55,11,47,44,0
2,0.69,-26.49,33.55,9,43,43,0
2,0.69,34.26,33.55,17,36,54,0
2,0.7,-33.13,33.55,15,25,53,0
2,0.72,53.54,33.55,8,30,51,0
2,0.74,-3.89,33.55,10,38,63,0
2,0.76,37.88,33.55,17,41,40,0
2,0.76,-22.07,33.5,16,45,45,0
2,0.77,0.07,33.5,14,37,48,0
2,0.77,-29.3,33.5,15,35,51,0
2,0.77,22.28,33.5,19,27,51,0
2,0.76,-22.03,33.5,24,32,51,0
2,0.76,22.77,33.5,24,38,46,0
2,0.75,-24.22,33.5,25,37,45,0
2,0.74,36.25,33.5,27,39,44,0
2,0.73,-36.78,33.53,27,38,44,0
2,0.74,13.34,33.53,28,37,44,0
2,0.73,-30.6,33.53,27,36,45,0
2,0.72,19.55,33.53,24,37,46,0
2,0.71,-25.26,33.5,22,36,46,0
2,0.7,12.94,33.5,22,35,46,0
2,0.69,-15.48,33.5,23,32,51,0
2,0.69,0.31,33.5,25,33,49,0
2,0.68,-20.94,33.5,26,38,47,0
2,0.68,2.65,33.5,27,36,44,0
2,0.67,13.32,33.5,27,34,46,0
2,0.67,5.92,33.5,27,33,49,0
2,0,-0.03,33.41,-15,-4,65,0
2,0.83,5.06,33.41,-16,-2,61,0
2,1.18,17.91,33.41,-16,-2,63,0
2,1.19,79.34,33.41,-13,-3,63,0
2,1.2,228.25,33.41,-13,-6,63,0
2,1.23,-486.5,33.41,-14,1,56,0
2,1.29,-5.9,33.41,19,-55,53,0
2,1.33,156.15,33.41,19,-64,44,0
2,1.48,46.78,33.41,19,-60,28,0
2,1.56,4.05,33.41,13,-61,24,0
2,1.57,0.42,33.41,3,-57,36,0
2,1.62,2.05,33.41,-10,-49,42,0
2,1.7,9.09,33.39,-23,-33,54,0
2,1.67,32.45,33.39,-26,-17,53,0
2,1.62,-18.45,33.39,71,-6,-18,0
2,1.34,-34.65,33.39,64,-11,-12,0
2,1.03,18.65,33.41,50,-8,23,0
2,1.16,-100.89,33.41,44,-40,29,0
2,1.19,64.74,33.41,47,-41,15,0
2,1.08,50.26,33.41,64,-40,9,0
2,1.12,-132.29,33.41,37,-52,20,0
2,1.04,-57.53,33.41,2,-60,8,0
2,1.22,-53.7,33.41,19,-67,10,0
2,1.21,91.28,33.41,15,-65,3,0
2,1.2,-50.38,33.31,5,-69,-12,0
2,1.28,0.27,33.31,16,-61,-22,0
2,1.31,41.16,33.31,-5,-62,-11,0
2,1.29,8.88,33.31,-3,-63,-7,0
2,1.27,-34.25,33.31,-5,-64,-9,0
2,1.24,22,33.31,0,-65,-5,0
2,1.23,-48.71,33.31,8,-64,-10,0
2,1.23,-1.73,33.31,9,-66,-8,0
2,1.21,-31,33.31,8,-64,-11,0
2,1.2,1.27,33.31,9,-64,-4,0
2,1.21,8.61,33.31,4,-64,6,0
2,1.23,4.51,33.31,4,-57,6,0
2,1.24,18.39,33.29,17,-59,5,0
2,1.23,-8.32,33.29,21,-61,-2,0
2,1.23,14.36,33.29,20,-56,-14,0
2,1.23,3.74,33.29,13,-62,2,0
2,1.24,29.06,33.31,20,-68,2,0
2,1.21,-18.14,33.31,17,-57,-1,0
2,1.21,15.6,33.31,13,-74,17,0
2,1.15,-31.2,33.31,4,-53,-4,0
2,1.14,49.53,33.33,-7,-69,16,0
2,1.04,38.9,33.33,32,-56,30,0
2,0.88,85.25,33.33,60,-28,13,0
2,0.78,-143.15,33.33,47,-14,16,0
2,0.75,141.15,33.31,34,-19,6,0
2,0.89,-85.63,33.31,10,-99,1,0
2,1.1,-18.77,33.31,12,-82,22,0
2,1.25,14.28,33.31,4,-71,-2,0
2,1.21,34.72,33.33,-6,-63,11,0
2,1.17,-115.83,33.33,-13,-61,6,0
2,1.2,318.74,33.33,-2,-61,7,0
2,1.18,-89.2,33.33,1,-69,11,0
2,0,-0.03,31.25,-32,44,34,0
2,0.09,5.06,31.25,-33,44,33,0
2,0.13,17.91,31.25,-33,44,34,0
2,0.13,79.34,31.25,-32,44,34,0
2,0.13,228.25,31.25,-33,44,34,0
2,0.13,-486.5,31.25,-32,44,34,0
2,0.13,-5.9,31.25,-32,44,34,0
2,0.13,156.15,31.25,-32,44,34,0
2,0.13,46.78,31.25,-33,44,33,0
2,0.13,4.05,31.25,-33,44,34,0
2,0.13,0.13,31.25,-33,44,34,0
2,0.13,0.72,31.25,-33,44,34,0
2,0.13,3.05,31.25,-33,43,33,0
2,0.13,12.6,31.25,-33,44,34,0
2,0.13,20.21,31.25,-33,44,34,0
2,0.13,-17.71,31.25,-33,44,33,0
2,0.13,12.4,31.25,-33,44,34,0
2,0.13,51.34,31.25,-35,43,33,0
2,0.13,57.04,31.25,-34,44,33,0
2,0.13,-228.57,31.25,-35,43,32,0
2,0.13,-20.4,31.27,-35,43,33,0
2,0.13,40.25,31.27,-35,43,32,0
2,0.13,22.58,31.27,-35,43,32,0
2,0.13,-0.58,31.27,-35,43,32,0
2,0.13,14.76,31.25,-35,43,32,0
2,0.13,6.97,31.25,-35,44,32,0
2,0.13,0.23,31.25,-36,43,32,0
2,0.13,3.91,31.25,-35,43,32,0
2,0.12,-6.69,31.25,-35,43,32,0
2,0.13,11.15,31.25,-35,43,32,0
2,0.12,4.64,31.25,-35,43,32,0
2,0.12,-15.14,31.25,-35,43,32,0
2,0.13,8.87,31.23,-35,43,32,0
2,0.12,-3.79,31.23,-35,43,32,0
2,0.12,-12.56,31.23,-35,43,32,0
2,0.12,8.82,31.23,-35,43,32,0
2,0.12,-3.9,31.25,-35,43,32,0
2,0.12,-2.85,31.25,-35,43,32,0
2,0.12,10.7,31.25,-35,43,32,0
2,0.12,-4.79,31.25,-35,44,32,0
2,0.12,1.28,31.25,-36,43,32,0
2,0.12,8.2,31.25,-35,43,32,0
2,0.12,-17.8,31.25,-35,43,32,0
2,0.12,5.77,31.25,-35,44,33,0
2,0.12,-1.61,31.23,-35,43,32,0
2,0.12,-12.23,31.23,-35,43,32,0
2,0.12,8.73,31.23,-35,43,32,0
2,0.12,3.87,31.23,-35,43,32,0
2,0.12,-15.1,31.21,-35,43,32,0
2,0.12,11.75,31.21,-35,44,32,0
2,0.12,-2.48,31.21,-35,44,32,0
2,0.12,-7.33,31.21,-35,43,32,0
2,0.12,8.96,31.23,-35,43,32,0
2,0.12,-6.52,31.23,-35,44,32,0
2,0.12,6.07,31.23,-36,43,32,0
2,0.12,9.78,31.23,-35,43,32,0
2,0,-0.03,33.29,-7,24,58,0
2,0.08,5.06,33.29,1,25,58,0
2,0.13,17.91,33.29,1,25,58,0
2,0.12,79.34,33.29,5,24,60,0
2,0.13,228.25,33.29,5,25,60,0
2,0.13,-486.5,33.29,1,23,58,0
2,0.13,-5.9,33.29,5,23,60,0
2,0.13,156.15,33.29,5,23,59,0
2,0.13,46.78,33.27,7,23,57,0
2,0.13,4.05,33.27,5,22,60,0
2,0.13,0.15,33.27,6,22,59,0
2,0.13,0.76,33.27,7,23,60,0
2,0.13,3.37,33.27,9,22,60,0
2,0.13,12.51,33.27,12,22,60,0
2,0.13,12.93,33.27,16,23,58,0
2,0.13,-29.78,33.27,12,22,56,0
2,0.13,-63.32,33.27,15,23,57,0
2,0.13,19.66,33.27,15,22,58,0
2,0.13,0.28,33.27,12,22,59,0
2,0.13,18.91,33.27,11,22,58,0
2,0.13,22.51,33.25,13,22,57,0
2,0.13,-33.9,33.25,17,22,59,0
2,0.13,41.35,33.25,14,22,59,0
2,0.13,0.48,33.25,13,22,58,0
2,0.13,-59.78,33.25,12,22,57,0
2,0.13,-1.99,33.25,13,22,59,0
2,0.13,-25.5,33.25,9,22,59,0
2,0.13,23.78,33.25,3,22,60,0
2,0.13,32.65,33.23,3,22,59,0
2,0.13,-43.76,33.23,4,22,60,0
2,0.13,38.15,33.23,4,22,59,0
2,0.13,-14.09,33.23,5,21,61,0
2,0.13,-11.4,33.23,4,22,60,0
2,0.13,44.21,33.23,3,22,60,0
2,0.13,-17.32,33.23,2,21,60,0
2,0.13,14.9,33.23,3,22,60,0
2,0.13,-42.64,33.23,3,22,60,0
2,0.13,-73.72,33.23,3,22,59,0
2,0.13,123.45,33.23,7,22,60,0
2,0.13,-4.05,33.23,6,22,59,0
2,0.13,9.88,33.23,4,19,62,0
2,0.13,7.84,33.23,13,11,55,0
2,0.13,-55.61,33.23,37,-11,74,0
2,0.13,64.86,33.23,29,-2,58,0
2,0.13,79.44,33.23,14,2,56,0
2,0.13,50.4,33.23,24,0,61,0
2,0.14,-10.02,33.23,20,3,72,0
2,0.13,47.87,33.23,24,5,62,0
2,0.13,48.68,33.25,21,9,61,0
2,0.13,-112.7,33.25,23,15,58,0
2,0.13,-201.66,33.25,20,18,58,0
2,0.13,-52.49,33.25,23,20,56,0
2,0.13,26.09,33.23,21,19,58,0
2,0.13,26.8,33.23,22,20,57,0
2,0.13,37.35,33.23,23,20,56,0
2,0.13,-3.91,33.23,24,20,56,0
2,0,-0.03,33.15,29,-9,57,1
2,0.53,5.06,33.15,29,-9,57,1
2,0.59,17.91,33.15,29,-9,58,1
2,0.59,79.34,33.15,29,-9,57,1
2,0.59,228.25,33.15,28,-9,57,1
2,0.59,-486.5,33.15,29,-9,57,1
2,0.59,-5.9,33.15,29,-9,57,1
2,0.59,156.15,33.15,29,-9,58,1
2,0.59,46.78,33.13,29,-9,58,1
2,0.59,4.05,33.13,28,-8,57,1
2,0.59,0.15,33.13,29,-8,57,1
2,0.59,0.77,33.13,29,-9,58,1
2,0.59,2.63,33.13,27,-8,57,1
2,0.59,8.35,33.13,25,-8,59,1
2,0.59,-6.67,33.13,25,-9,57,1
2,0.59,-14.44,33.13,34,-13,54,1
2,0.59,9.04,33.13,33,-13,54,1
2,0.59,-6.15,33.13,33,-13,54,1
2,0.59,-12.41,33.13,33,-13,54,1
2,0.59,5.72,33.13,33,-13,54,1
2,0.59,-17.64,33.15,33,-13,54,1
2,0.59,-35.15,33.15,33,-13,54,1
2,0.59,31.05,33.15,33,-13,54,1
2,0.59,21.77,33.15,33,-13,54,1
2,0.59,13.59,33.11,33,-13,54,1
2,0.58,-11.44,33.11,33,-13,54,1
2,0.58,21.98,33.11,33,-13,54,1
2,0.58,15.64,33.11,33,-13,54,1
2,0.58,-6.34,33.11,32,-13,54,1
2,0.58,22.95,33.11,33,-12,54,1
2,0.58,-3.77,33.11,32,-12,54,1
2,0.58,-1.21,33.11,32,-13,55,1
2,0.58,6.47,33.09,32,-13,54,1
2,0.58,-21.11,33.09,32,-13,55,1
2,0.58,16.41,33.09,32,-12,54,1
2,0.58,-5.33,33.09,32,-12,54,1
2,0.58,-25.5,33.11,32,-12,54,1
2,0.58,15.95,33.11,32,-12,55,1
2,0.58,-1.35,33.11,32,-13,55,1
2,0.58,-16.68,33.11,33,-13,54,1
2,0.58,7.97,33.09,32,-13,54,1
2,0.58,-13.74,33.09,33,-13,54,1
2,0.58,0.75,33.09,33,-13,54,1
2,0.58,-11.45,33.09,33,-13,54,1
2,0.58,-15.63,33.07,32,-13,55,1
2,0.58,34.25,33.07,30,-13,55,1
2,0.58,28.3,33.07,30,-12,56,1
2,0.58,9.75,33.07,30,-12,56,1
2,0.58,37.97,33.07,30,-13,56,1
2,0.58,19.7,33.07,27,-12,56,1
2,0.58,-12.49,33.07,29,-11,56,1
2,0.57,-22.54,33.07,30,-11,56,1
2,0.58,-36.98,33.09,29,-11,56,1
2,0.57,-9.85,33.09,30,-11,56,1
2,0.57,-24.44,33.09,29,-11,56,1
2,0.57,-41.27,33.09,29,-11,57,1
2,0,-0.03,32.45,51,-35,-21,1
2,0.83,5.06,32.45,50,-37,-18,1
2,1.18,17.91,32.45,50,-38,-17,1
2,1.61,79.34,32.45,50,-38,-17,1
2,2.09,228.25,32.45,49,-39,-19,1
2,2.58,-486.5,32.45,46,-42,-19,1
2,3.1,-5.9,32.45,47,-40,-20,1
2,3.33,156.15,32.45,48,-38,-20,1
2,3.32,46.78,32.45,52,-36,-19,1
2,3.3,4.05,32.45,51,-35,-18,1
2,3.31,0.17,32.45,50,-38,-17,1
2,3.36,0.45,32.45,50,-38,-18,1
2,3.46,2.28,32.47,49,-38,-19,1
2,3.59,9.32,32.47,47,-40,-20,1
2,3.68,-9.38,32.47,45,-41,-21,1
2,3.74,12.21,32.47,47,-38,-20,1
2,3.77,4.32,32.43,54,-36,-14,1
2,3.81,-3.54,32.43,60,-32,-6,1
2,3.85,-12.25,32.43,63,-26,0,1
2,3.85,44.55,32.43,61,-31,-5,1
2,3.82,79.43,32.43,52,-38,-10,1
2,3.78,-41.11,32.43,52,-37,-9,1
2,3.73,-101.96,32.43,53,-36,-9,1
2,3.7,-48.8,32.43,55,-34,-11,1
2,3.68,11.22,32.43,54,-37,-12,1
2,3.67,71.93,32.43,49,-38,-17,1
2,3.65,34.39,32.43,44,-41,-21,1
2,3.64,-4.57,32.43,44,-40,-23,1
2,3.62,22.27,32.45,48,-40,-20,1
2,3.61,-8.66,32.45,51,-36,-16,1
2,3.59,23.17,32.45,54,-35,-14,1
2,3.57,16.16,32.45,51,-37,-12,1
2,3.55,35.28,32.45,52,-38,-12,1
2,3.55,1.13,32.45,54,-36,-10,1
2,3.58,8.4,32.45,52,-36,-12,1
2,3.67,-14.57,32.45,52,-36,-14,1
2,3.79,4.28,32.45,53,-34,-16,1
2,3.87,14.21,32.45,53,-33,-17,1
2,3.91,-13.96,32.45,52,-36,-14,1
2,3.95,-23.48,32.45,53,-36,-12,1
2,3.96,10.09,32.45,56,-32,-10,1
2,3.96,-0.5,32.45,56,-32,-9,1
2,3.94,17.86,32.45,54,-34,-8,1
2,3.92,-4.65,32.45,55,-36,-5,1
2,3.88,-10.65,32.43,55,-35,-4,1
2,3.82,-2.2,32.43,53,-38,-4,1
2,3.78,13.06,32.43,52,-38,-6,1
2,3.75,13.42,32.43,53,-37,-9,1
2,3.71,2.78,32.43,52,-37,-10,1
2,3.68,-14.97,32.43,49,-38,-8,1
2,3.65,-12.59,32.43,56,-37,-8,1
2,3.64,-0.15,32.43,57,-31,-6,1
2,3.65,8.02,32.45,59,-30,-3,1
2,3.69,23.85,32.45,60,-30,0,1
2,3.8,7.18,32.45,58,-33,-2,1
2,3.87,39.49,32.45,48,-40,0,1
2,0,-0.03,32.97,54,-33,17,0
2,0.04,5.06,32.97,54,-33,17,0
2,0.07,17.91,32.97,54,-33,17,0
2,0.07,79.34,32.97,54,-33,17,0
2,0.08,228.25,32.97,54,-33,16,0
2,0.07,-486.5,32.97,54,-33,16,0
2,0.07,-5.93,32.97,54,-34,16,0
2,0.07,155.46,32.97,54,-33,16,0
2,0.07,42.62,32.99,54,-32,16,0
2,0.07,-12.13,32.99,55,-33,16,0
2,0.08,4.8,32.99,54,-33,15,0
2,0.07,21.48,32.99,54,-34,16,0
2,0.07,-0.34,32.99,54,-34,17,0
2,0.07,3.95,32.99,55,-34,17,0
2,0.07,6.49,32.99,47,-34,25,0
2,0.08,-16.12,32.99,56,-32,41,0
2,0.07,-8.62,32.95,39,1,43,0
2,0.07,-19.29,32.95,33,16,49,0
2,0.07,-62.5,32.95,25,23,49,0
2,0.06,32.76,32.95,39,29,42,0
2,0.05,3.36,32.97,40,26,37,0
2,0.03,-149.64,32.97,34,20,58,0
2,0.03,-38.98,32.97,29,14,55,0
2,0.03,52.28,32.97,9,12,62,0
2,0.03,72.7,32.95,13,13,60,0
2,0.03,-59.64,32.95,11,13,63,0
2,0.03,-71.82,32.95,10,14,64,0
2,0.03,-69.98,32.95,18,14,58,0
2,0.03,95.26,32.93,45,21,43,0
2,0.03,28.75,32.93,48,23,40,0
2,0.04,35,32.93,49,24,35,0
2,0.04,206.37,32.93,53,29,22,0
2,0.04,-162.13,32.83,61,28,14,0
2,0.04,-413.87,32.83,56,28,7,0
2,0.04,233.07,32.83,59,26,5,0
2,0.04,-77.94,32.83,61,24,3,0
2,0.04,-282.66,32.79,59,16,3,0
2,0.04,61.06,32.79,61,25,5,0
2,0.04,164.58,32.79,55,21,9,0
2,0.04,81.02,32.79,62,17,8,0
2,0.04,62.92,32.79,66,10,5,0
2,0.04,-171.14,32.79,70,6,3,0
2,0.04,209.08,32.79,65,3,-2,0
2,0.04,-209.39,32.79,66,3,-2,0
2,0.04,-86.73,32.77,69,1,-4,0
2,0.04,137.56,32.77,66,2,-6,0
2,0.04,-81.98,32.77,67,2,-7,0
2,0.04,-21.18,32.77,67,1,-7,0
2,0.05,-19.32,32.75,66,2,-6,0
2,0.05,-13.32,32.75,66,0,-7,0
2,0.05,-33.95,32.75,71,-4,3,0
2,0.05,36.59,32.75,62,-19,22,0
2,0.05,-10.69,32.81,30,-24,42,0
2,0.05,25.47,32.81,30,-33,51,0
2,0.05,-191.55,32.81,30,-38,51,0
2,0.05,-297.77,32.81,52,-19,29,0
2,0,-0.03,32.43,-18,22,58,1
2,0.11,5.06,32.43,-17,22,58,1
2,0.15,17.91,32.43,-17,22,58,1
2,0.16,79.34,32.43,-17,22,58,1
2,0.16,228.25,32.43,-17,22,57,1
2,0.16,-486.5,32.43,-17,22,58,1
2,0.17,-5.9,32.43,-17,22,58,1
2,0.16,156.15,32.43,-17,23,58,1
2,0.16,46.78,32.41,-17,22,58,1
2,0.16,4.05,32.41,-16,22,58,1
2,0.17,0.14,32.41,-17,22,58,1
2,0.16,0.76,32.41,-17,22,58,1
2,0.16,3.26,32.43,-16,23,57,1
2,0.17,13.21,32.43,-17,23,57,1
2,0.17,17.62,32.43,-16,22,57,1
2,0.16,-15.57,32.43,-16,22,57,1
2,0.16,13.13,32.41,-17,22,58,1
2,0.16,58.8,32.41,-17,22,59,1
2,0.17,81.04,32.41,-15,22,58,1
2,0.16,-267.33,32.41,-16,22,59,1
2,0.16,-1.76,32.41,-16,22,59,1
2,0.16,41.1,32.41,-16,22,58,1
2,0.17,-11.84,32.41,-16,21,58,1
2,0.16,27.71,32.41,-17,22,58,1
2,0.16,9.84,32.41,-17,22,59,1
2,0.17,-19.23,32.41,-16,22,58,1
2,0.17,22.1,32.41,-16,22,59,1
2,0.16,-15.35,32.41,-16,22,58,1
2,0.17,15.28,32.41,-16,22,58,1
2,0.17,12.59,32.41,-16,22,59,1
2,0.16,-21.02,32.41,-16,22,59,1
2,0.16,24.11,32.41,-16,22,58,1
2,0.17,14.09,32.39,-12,22,60,1
2,0.17,-37.16,32.39,-13,21,59,1
2,0.16,27.23,32.39,-13,23,59,1
2,0.16,5.03,32.39,-12,21,59,1
2,0.17,-47.63,32.41,-12,22,59,1
2,0.17,21.55,32.41,-13,22,59,1
2,0.16,-9.13,32.41,-13,22,59,1
2,0.16,14.23,32.41,-13,22,59,1
2,0.17,9.95,32.39,-15,22,58,1
2,0.17,-30.01,32.39,-13,22,59,1
2,0.16,24.27,32.39,-15,22,59,1
2,0.16,10.96,32.39,-17,22,59,1
2,0.17,-39.06,32.39,-16,22,59,1
2,0.17,17.59,32.39,-16,22,59,1
2,0.16,-3.05,32.39,-14,22,59,1
2,0.16,13.06,32.39,-17,23,57,1
2,0.17,13.9,32.37,-16,22,58,1
2,0.17,-27.97,32.37,-18,22,59,1
2,0.16,25.76,32.37,-18,22,58,1
2,0.16,10.71,32.37,-18,22,58,1
2,0.17,-26.44,32.37,-18,22,58,1
2,0.16,14.18,32.37,-17,22,59,1
2,0.16,-17.48,32.37,-17,22,58,1
2,0.17,-4.43,32.37,-17,22,59,1
2,0,-0.03,33.77,-38,-29,-43,0
2,0.02,5.06,33.77,-39,-28,-42,0
2,0.05,17.91,33.77,-38,-29,-42,0
2,0.04,79.34,33.77,-38,-29,-43,0
2,0.04,228.25,33.77,-39,-28,-42,0
2,0.04,-486.5,33.77,-38,-28,-42,0
2,0.04,-5.9,33.77,-38,-28,-43,0
2,0.05,156.15,33.77,-39,-28,-42,0
2,0.05,46.78,33.77,-39,-28,-42,0
2,0.05,4.05,33.77,-38,-28,-42,0
2,0.05,0.16,33.77,-39,-28,-42,0
2,0.05,0.83,33.77,-38,-28,-42,0
2,0.05,3.61,33.73,-39,-28,-42,0
2,0.05,14.3,33.73,-39,-28,-42,0
2,0.05,15.23,33.73,-39,-28,-42,0
2,0.05,-15.44,33.73,-39,-28,-42,0
2,0.05,13.3,33.77,-39,-28,-42,0
2,0.05,57.2,33.77,-39,-28,-42,0
2,0.05,38.19,33.77,-39,-28,-42,0
2,0.05,-194.7,33.77,-39,-28,-42,0
2,0.05,-11.25,33.77,-39,-28,-42,0
2,0.05,38.43,33.77,-39,-28,-42,0
2,0.05,29.65,33.77,-39,-28,-42,0
2,0.05,-11.28,33.77,-39,-28,-42,0
2,0.05,26.38,33.75,-39,-28,-42,0
2,0.05,-4.35,33.75,-38,-28,-42,0
2,0.05,-5.81,33.75,-44,-29,-34,0
2,0.05,10.03,33.75,-55,-24,-28,0
2,0.04,-16.2,33.77,-59,-13,-31,0
2,0.05,17.4,33.77,-60,4,-31,0
2,0.05,-7.3,33.77,-44,25,-30,0
2,0.05,-40.71,33.77,-35,44,-23,0
2,0.04,-10.06,33.75,-23,55,-24,0
2,0.04,-7.73,33.75,-9,56,-10,0
2,0.04,30.94,33.75,10,53,5,0
2,0.04,40.89,33.75,41,52,16,0
2,0.04,41.5,33.73,67,45,23,0
2,0.04,30.96,33.73,47,49,13,0
2,0.04,-7.52,33.73,17,54,2,0
2,0.04,-53.42,33.73,-8,56,-4,0
2,0.04,10.76,33.71,-25,53,-7,0
2,0.04,0.19,33.71,-52,38,-9,0
2,0.04,5.62,33.71,-68,33,-12,0
2,0.04,11.24,33.71,-47,44,-5,0
2,0.04,-22.91,33.66,-9,43,14,0
2,0.04,0.66,33.66,20,41,24,0
2,0.04,-18.23,33.66,56,29,22,0
2,0.04,-16.71,33.66,78,7,19,0
2,0.04,9.88,33.65,90,9,14,0
2,0.04,-16.07,33.65,76,18,12,0
2,0.04,8.97,33.65,44,35,11,0
2,0.04,-4.45,33.65,3,47,4,0
2,0.04,-56.72,33.63,-27,51,-1,0
2,0.04,17.37,33.63,-49,39,-11,0
2,0.04,-2.7,33.63,-70,31,-10,0
2,0.04,30.51,33.63,-50,42,-2,0
2,0,-0.03,33.77,-36,52,-10,0
2,0.83,5.06,33.77,-36,52,-10,0
2,1.18,17.91,33.77,-36,52,-11,0
2,1.39,79.34,33.77,-36,52,-12,0
2,1.38,228.25,33.77,-36,52,-11,0
2,1.37,-486.5,33.77,-36,52,-11,0
2,1.37,-5.9,33.77,-36,52,-11,0
2,1.36,156.15,33.77,-35,52,-11,0
2,1.35,46.78,33.79,-35,52,-11,0
2,1.35,4.05,33.79,-36,52,-11,0
2,1.34,0.17,33.79,-35,52,-11,0
2,1.33,0.87,33.79,-35,52,-11,0
2,1.33,3.84,33.77,-36,52,-11,0
2,1.34,14.94,33.77,-36,52,-11,0
2,1.38,10.18,33.77,-36,52,-11,0
2,1.46,-21.08,33.77,-36,52,-12,0
2,1.48,-17.6,33.77,-36,52,-11,0
2,1.5,-60.01,33.77,-35,52,-11,0
2,1.52,47.42,33.77,-36,52,-11,0
2,1.51,-18.4,33.77,-35,52,-12,0
2,1.5,32.47,33.77,-36,52,-11,0
2,1.49,-4.74,33.77,-35,52,-11,0
2,1.47,0.48,33.77,-36,52,-11,0
2,1.45,13.09,33.77,-35,52,-11,0
2,1.43,-42.75,33.77,-35,52,-12,0
2,1.41,28.12,33.77,-35,52,-11,0
2,1.39,-29.36,33.77,-36,52,-11,0
2,1.37,31.49,33.77,-36,52,-12,0
2,1.36,-4.63,33.79,-36,52,-12,0
2,1.35,12.47,33.79,-36,52,-11,0
2,1.35,0.1,33.79,-35,52,-11,0
2,1.34,-27.95,33.79,-35,52,-11,0
2,1.35,14.73,33.77,-35,52,-11,0
2,1.43,-41.05,33.77,-35,52,-11,0
2,1.44,29.73,33.77,-36,52,-11,0
2,1.44,-18.36,33.77,-35,52,-11,0
2,1.43,27.6,33.73,-35,52,-11,0
2,1.42,-2.03,33.73,-35,52,-11,0
2,1.42,-5.11,33.73,-36,52,-11,0
2,1.41,13.7,33.73,-36,52,-11,0
2,1.4,-30.13,33.75,-35,52,-11,0
2,1.4,18.22,33.75,-35,52,-11,0
2,1.39,-34.62,33.75,-36,52,-11,0
2,1.38,25.76,33.75,-35,52,-11,0
2,1.38,-14.15,33.75,-35,52,-11,0
2,1.36,21.13,33.75,-36,52,-11,0
2,1.36,5.92,33.75,-35,52,-11,0
2,1.35,-18.45,33.75,-36,52,-10,0
2,1.35,15.02,33.73,-35,52,-11,0
2,1.34,-37.81,33.73,-35,52,-12,0
2,1.33,27.67,33.73,-35,52,-11,0
2,1.33,-20.24,33.73,-36,52,-11,0
2,1.32,31.49,33.75,-35,52,-12,0
2,1.32,-9.54,33.75,-36,52,-12,0
2,1.33,13.88,33.75,-36,52,-11,0
2,1.34,1.47,33.75,-35,52,-11,0
2,0,-0.03,35.29,-31,-36,45,0
2,0.83,5.06,35.29,-36,-37,44,0
2,1.14,17.91,35.29,-34,-36,45,0
2,0.94,79.34,35.29,-31,-35,51,0
2,0.94,228.25,35.29,-23,-19,53,0
2,0.94,-486.5,35.29,-22,-16,54,0
2,0.94,-5.9,35.29,-11,-14,59,0
2,0.93,156.15,35.29,-1,-13,63,0
2,0.93,46.78,35.27,-6,-23,61,0
2,0.93,4.05,35.27,12,-19,59,0
2,0.92,0.18,35.27,20,-30,57,0
2,0.9,0.92,35.27,39,-37,46,0
2,0.89,4.01,35.25,42,-40,31,0
2,0.9,15.53,35.25,37,-43,39,0
2,0.91,10.9,35.25,36,-37,42,0
2,0.92,-21.86,35.25,32,-26,49,0
2,0.92,4.54,35.21,27,-16,53,0
2,0.92,-5.7,35.21,12,-4,55,0
2,0.92,-121.75,35.21,36,15,40,0
2,0.91,38.18,35.21,59,-41,52,0
2,0.91,-16.7,35.18,35,-29,44,0
2,0.92,28.66,35.18,40,-27,45,0
2,0.91,43.68,35.18,42,-27,53,0
2,0.9,41.95,35.18,44,-15,45,0
2,0.9,-5.06,35.21,47,-5,42,0
2,0.89,-53.22,35.21,39,25,28,0
2,0.87,-105.61,35.21,37,-2,31,0
2,0.85,7.37,35.21,32,-47,26,0
2,0.86,-9.24,35.18,-12,-63,19,0
2,0.87,33.19,35.18,-29,-64,10,0
2,0.89,-60.24,35.18,-26,-58,29,0
2,0.86,19.34,35.18,-28,-53,29,0
2,0.8,30.13,35.21,-27,-53,37,0
2,0.8,14.67,35.21,-24,-51,33,0
2,0.81,-73.57,35.21,12,-71,37,0
2,0.81,43.22,35.21,37,-49,23,0
2,0.8,21.19,35.18,13,-9,60,0
2,1,52.61,35.18,11,-26,59,0
2,1.07,-37.68,35.18,-5,-39,58,0
2,1.13,119,35.18,-10,-36,47,0
2,1.16,67.88,35.18,-11,-36,57,0
2,1.16,19.05,35.18,4,5,32,0
2,1.15,36.97,35.18,44,-39,58,0
2,1.12,15.97,35.18,39,-34,48,0
2,1.12,-123.38,35.15,37,-19,50,0
2,1.12,-59.53,35.15,28,-14,56,0
2,1.11,-15.88,35.15,21,-10,58,0
2,1.1,74.86,35.15,22,-4,58,0
2,1.09,-9.94,35.18,20,5,52,0
2,1.07,-99.05,35.18,30,-42,54,0
2,1.07,-53.28,35.18,48,-37,50,0
2,1.07,1.96,35.18,49,-35,42,0
2,1.05,-38.49,35.16,51,-15,35,0
2,1.01,-7.8,35.16,41,-4,40,0
2,1,104.96,35.16,34,-23,30,0
2,1.03,30.64,35.16,46,-30,34,0
2,0,-0.03,34.13,-63,15,22,0
2,0.01,5.06,34.13,-73,16,25,0
2,0.06,17.91,34.13,-31,27,56,0
2,0.05,79.34,34.13,12,25,53,0
2,0.12,228.25,34.13,-4,16,64,0
2,0.13,-486.5,34.13,13,42,53,0
2,0.14,-5.9,34.13,-11,15,62,0
2,0.14,156.15,34.13,-35,13,50,0
2,0.14,46.78,34.11,19,22,29,0
2,0.13,4.05,34.11,70,-52,74,0
2,0.13,0.12,34.11,32,-48,33,0
2,0.14,0.81,34.11,35,-50,20,0
2,0.15,3.24,34.13,41,-54,1,0
2,0.15,13.78,34.13,36,-51,-9,0
2,0.15,23.17,34.13,28,-65,-1,0
2,0.14,-40.89,34.13,7,-61,-4,0
2,0.15,-27.75,34.13,2,-48,41,0
2,0.15,-80.28,34.13,-10,-18,47,0
2,0.15,-31.09,34.13,-14,-1,58,0
2,0.15,12.24,34.13,-18,-24,63,0
2,0.15,54.95,34.09,-19,-27,54,0
2,0.15,18.84,34.09,40,-53,30,0
2,0.15,41.95,34.09,40,-53,11,0
2,0.15,-16.44,34.09,31,-56,-19,0
2,0.16,23.33,34.11,16,-61,-29,0
2,0.17,54.66,34.11,-10,-83,-12,0
2,0.17,-99.7,34.11,-21,-55,9,0
2,0.17,-92.4,34.11,8,-74,8,0
2,0.17,-21.16,34.11,18,-67,16,0
2,0.17,57.26,34.11,30,-37,46,0
2,0.17,-75.97,34.11,15,-27,53,0
2,0.18,28.39,34.11,3,-44,49,0
2,0.18,-2.75,34.09,-35,-19,58,0
2,0.18,45.76,34.09,-19,-26,63,0
2,0.18,-34.34,34.09,-15,-11,59,0
2,0.18,-51.93,34.09,-16,-11,62,0
2,0.18,-124.32,34.11,-17,-11,60,0
2,0.18,90.81,34.11,-16,-9,57,0
2,0.17,46.5,34.11,-1,-21,58,0
2,0.17,-1.86,34.11,1,-30,51,0
2,0.16,-11.09,34.11,24,-37,49,0
2,0.1,-33.63,34.11,39,-49,54,0
2,0.04,45.74,34.11,27,-37,45,0
2,0.04,-44.9,34.11,31,-41,49,0
2,0.03,19.49,34.13,12,-43,28,0
2,0.03,-0.07,34.13,8,-35,54,0
2,0.03,11.4,34.13,-3,-44,39,0
2,0.1,-5.12,34.13,11,-39,62,0
2,0.13,-38.85,34.11,11,-39,56,0
2,0.13,52.61,34.11,2,-22,62,0
2,0.13,97.36,34.11,-5,-19,56,0
2,0.13,-25.99,34.11,18,-37,55,0
2,0.12,-34.98,34.11,7,-57,38,0
2,0.08,8.02,34.11,-4,-52,37,0
2,0.07,97.91,34.11,-7,-59,30,0
2,0.08,-8.66,34.11,-3,-63,11,0
2,0,-0.03,35.49,-11,19,60,0
2,0.53,5.06,35.49,-11,20,60,0
2,0.59,17.91,35.49,-11,19,60,0
2,0.58,79.34,35.49,-11,19,60,0
2,0.58,228.25,35.49,-11,19,60,0
2,0.58,-486.5,35.49,-11,19,60,0
2,0.58,-5.9,35.49,-11,19,61,0
2,0.58,156.15,35.49,-12,19,60,0
2,0.58,46.78,35.45,-12,19,60,0
2,0.58,4.05,35.45,-11,19,61,0
2,0.58,0.16,35.45,-10,20,61,0
2,0.58,-0.07,35.45,-11,18,60,0
2,0.58,-0.09,35.47,-13,19,60,0
2,0.58,1.46,35.47,-13,18,60,0
2,0.58,-21.07,35.47,-16,17,61,0
2,0.57,1.64,35.47,-15,23,55,0
2,0.57,-3.63,35.47,-14,32,46,0
2,0.57,5.3,35.47,-3,29,57,0
2,0.56,-5.29,35.47,-17,30,51,0
2,0.56,69.27,35.47,-18,29,48,0
2,0.55,38.84,35.47,-6,21,66,0
2,0.56,-31.88,35.47,-12,20,62,0
2,0.57,-2.23,35.47,-4,29,61,0
2,0.57,-13.68,35.47,-6,48,31,0
2,0.53,54.12,35.45,9,52,29,0
2,0.53,-30.31,35.45,29,53,26,0
2,0.53,-121.1,35.45,30,53,23,0
2,0.53,-23.77,35.45,24,52,24,0
2,0.52,-47.49,35.43,28,52,22,0
2,0.52,75.62,35.43,28,52,23,0
2,0.52,32.36,35.43,28,52,23,0
2,0.52,22.04,35.43,28,52,24,0
2,0.52,-23.66,35.45,28,52,26,0
2,0.52,-1,35.45,28,52,22,0
2,0.52,-10.29,35.45,28,53,21,0
2,0.52,-22.74,35.45,22,52,25,0
2,0.51,4.46,35.47,37,52,22,0
2,0.51,-33.73,35.47,29,53,22,0
2,0.51,15.08,35.47,28,52,22,0
2,0.51,-19.85,35.47,30,52,23,0
2,0.51,20.4,35.45,24,53,23,0
2,0.51,-1.33,35.45,21,51,27,0
2,0.52,12.15,35.45,27,53,25,0
2,0.51,1.87,35.45,26,53,26,0
2,0.51,-32.25,35.45,24,52,25,0
2,0.51,17.41,35.45,25,52,25,0
2,0.51,-51.6,35.45,25,51,27,0
2,0.51,44.78,35.45,34,54,24,0
2,0.51,-14.3,35.43,16,50,28,0
2,0.52,40.96,35.43,22,52,27,0
2,0.52,3.05,35.43,26,51,27,0
2,0.52,8.79,35.43,25,51,27,0
2,0.52,0.68,35.41,24,51,28,0
2,0.52,-60.92,35.41,24,51,28,0
2,0.52,38.82,35.41,24,52,28,0
2,0.52,-31.38,35.41,24,52,28,0
2,0,-0.03,37.27,33,26,48,0
2,0.06,5.06,37.27,33,26,48,0
2,0.09,17.91,37.27,33,26,48,0
2,0.09,79.34,37.27,33,26,48,0
2,0.09,228.25,37.27,33,26,48,0
2,0.09,-486.5,37.27,33,26,48,0
2,0.09,-5.9,37.27,33,26,48,0
2,0.09,156.15,37.27,33,26,48,0
2,0.09,46.78,37.27,33,26,48,0
2,0.09,4.05,37.27,33,26,48,0
2,0.09,0.17,37.27,33,26,48,0
2,0.09,0.86,37.27,33,26,48,0
2,0.09,3.82,37.23,33,26,48,0
2,0.09,14.87,37.23,33,26,48,0
2,0.09,11.88,37.23,33,26,48,0
2,0.09,-18.15,37.23,33,26,48,0
2,0.09,-5.46,37.18,33,26,48,0
2,0.09,-29.71,37.18,32,26,49,0
2,0.09,-42.29,37.18,33,26,49,0
2,0.09,-18.34,37.18,33,26,48,0
2,0.09,-36.28,37.16,33,26,48,0
2,0.09,78.62,37.16,33,26,48,0
2,0.09,-10.82,37.16,33,26,48,0
2,0.09,17.55,37.16,33,26,48,0
2,0.09,42.81,37.15,33,26,48,0
2,0.09,-30.54,37.15,33,26,48,0
2,0.09,50.39,37.15,33,26,48,0
2,0.09,5.64,37.15,33,26,48,0
2,0.09,-58.95,37.13,33,26,48,0
2,0.09,17.69,37.13,33,26,48,0
2,0.09,-38.34,37.13,33,26,48,0
2,0.09,8.26,37.13,33,26,48,0
2,0.09,8.89,37.11,33,26,48,0
2,0.09,-54.02,37.11,34,26,48,0
2,0.09,56.94,37.11,33,26,48,0
2,0.09,-10.07,37.11,33,26,48,0
2,0.09,26.18,37.09,33,26,48,0
2,0.09,47.08,37.09,33,26,48,0
2,0.09,-53.54,37.09,33,26,48,0
2,0.09,47.42,37.09,33,26,48,0
2,0.09,-20.99,37.09,33,26,48,0
2,0.09,-28.19,37.09,34,26,48,0
2,0.09,1.83,37.09,33,26,48,0
2,0.09,-60.71,37.09,32,25,48,0
2,0.09,46.64,37.07,34,27,47,0
2,0.09,-4.7,37.07,34,26,48,0
2,0.09,-21.95,37.07,34,27,48,0
2,0.09,37.59,37.07,33,26,48,0
2,0.09,-13.86,37.03,33,26,48,0
2,0.09,77.41,37.03,33,26,48,0
2,0.09,12.03,37.03,34,26,48,0
2,0.09,-29.81,37.03,33,26,48,0
2,0.09,1.04,37,33,26,48,0
2,0.09,-63.67,37,34,26,48,0
2,0.09,19.93,37,33,26,48,0
2,0.09,-4.54,37,33,26,48,0
2,0,-0.03,35.23,57,-32,-6,0
2,0.83,5.06,35.23,64,-16,-3,0
2,1.01,17.91,35.23,59,-31,12,0
2,0.88,79.34,35.23,51,-36,18,0
2,0.88,228.25,35.23,47,-36,23,0
2,0.89,-486.5,35.23,45,-37,18,0
2,0.89,-5.9,35.23,38,-72,12,0
2,0.88,156.15,35.23,26,-113,-22,0
2,0.89,46.78,35.25,5,-77,5,0
2,0.88,4.05,35.25,-32,-43,15,0
2,0.9,0.15,35.25,2,-92,35,0
2,0.95,0.59,35.25,22,-63,11,0
2,0.95,2.73,35.25,57,-72,6,0
2,0.94,8.89,35.25,16,-54,-27,0
2,0.94,-3.43,35.25,-19,-73,4,0
2,0.95,-4.28,35.25,19,-58,37,0
2,0.95,-26.52,35.23,21,-68,-4,0
2,0.95,73.84,35.23,33,-56,-3,0
2,0.95,19.14,35.23,43,-55,17,0
2,0.94,33.75,35.23,44,-43,31,0
2,0.95,14.32,35.23,41,-35,36,0
2,0.95,20.27,35.23,14,-40,31,0
2,0.95,-95.91,35.23,-7,-53,36,0
2,0.95,-11.94,35.23,4,-54,20,0
2,0.94,33.13,35.18,12,-66,27,0
2,0.94,65.85,35.18,11,-79,22,0
2,0.95,-66.69,35.18,22,-64,0,0
2,0.96,114.94,35.18,23,-58,4,0
2,0.95,-116.36,35.21,17,-70,33,0
2,0.94,23.72,35.21,27,-42,22,0
2,0.94,33.89,35.21,47,-42,21,0
2,0.94,-14.4,35.21,50,-31,6,0
2,0.92,-49.62,35.21,37,-49,11,0
2,0.9,42.43,35.21,28,-57,14,0
2,0.9,-29.57,35.21,39,-53,-3,0
2,0.91,-18.32,35.21,32,-64,-10,0
2,0.89,-17.91,35.18,39,-47,-19,0
2,0.89,30.31,35.18,55,-31,-15,0
2,0.89,25.09,35.18,57,-23,-20,0
2,0.89,9.31,35.18,61,-14,-16,0
2,0.88,22,35.21,69,-13,-13,0
2,0.86,10.46,35.21,55,-12,6,0
2,0.83,-12.56,35.21,42,-24,22,0
2,0.78,-23.19,35.21,-4,-38,48,0
2,0.74,17,35.21,-2,-28,58,0
2,0.74,-9.31,35.21,75,-5,9,0
2,0.68,4.51,35.21,60,7,-9,0
2,0.61,17.97,35.21,56,-9,-7,0
2,0.68,1.21,35.18,60,-39,-4,0
2,0.69,-50.02,35.18,58,-39,-8,0
2,0.71,73.31,35.18,49,-39,-10,0
2,0.72,83.9,35.18,62,-36,-17,0
2,0.72,-1.14,35.18,51,-39,-13,0
2,0.76,-128.75,35.18,50,-47,-5,0
2,0.77,-3.97,35.18,48,-15,6,0
2,0.77,-4.56,35.18,76,-9,12,0
2,0,-0.03,33.15,23,41,43,0
2,0.02,5.06,33.15,22,40,43,0
2,0.06,17.91,33.15,24,41,42,0
2,0.06,79.34,33.15,23,42,41,0
2,0.06,228.25,33.15,23,41,42,0
2,0.06,-486.5,33.15,24,42,42,0
2,0.06,-5.9,33.15,22,41,42,0
2,0.06,156.15,33.15,22,41,43,0
2,0.06,46.78,33.21,22,41,43,0
2,0.06,4.05,33.21,22,41,43,0
2,0.06,0.16,33.21,21,41,43,0
2,0.06,0.83,33.21,21,41,44,0
2,0.06,3.63,33.18,22,41,48,0
2,0.06,14.36,33.18,16,48,37,0
2,0.06,14.39,33.18,3,41,46,0
2,0.06,-13.75,33.18,-1,36,51,0
2,0.06,14.31,33.18,-4,33,56,0
2,0.05,56.3,33.18,-7,32,57,0
2,0.06,51.21,33.18,-8,30,55,0
2,0.06,-317.81,33.18,-35,27,46,0
2,0.06,19.82,33.16,-43,23,35,0
2,0.05,116,33.16,0,-13,54,0
2,0.05,48.93,33.16,-18,-7,64,0
2,0.05,62.7,33.16,-19,4,57,0
2,0.05,-8.83,33.18,-8,-6,73,0
2,0.05,-147.04,33.18,-14,-12,61,0
2,0.05,-6.7,33.18,-3,-12,63,0
2,0.05,-26.73,33.18,-3,-13,63,0
2,0.06,-67.68,33.15,-3,-13,63,0
2,0.06,-118.92,33.15,-6,-8,61,0
2,0.05,130.48,33.15,-2,-6,62,0
2,0.04,-6.69,33.15,-2,-8,64,0
2,0.04,14.43,33.11,-2,-8,63,0
2,0.04,41.45,33.11,-2,-9,65,0
2,0.04,-44.31,33.11,-4,-8,64,0
2,0.04,3.94,33.11,18,-8,63,0
2,0.04,-46.21,33.11,53,1,39,0
2,0.04,-18.01,33.11,54,2,32,0
2,0.04,-5.83,33.11,60,2,35,0
2,0.04,12.08,33.11,58,2,35,0
2,0.04,35.52,33.11,57,3,34,0
2,0.04,-5.42,33.11,53,1,36,0
2,0.04,11.98,33.11,53,2,38,0
2,0.05,-26.25,33.11,50,0,41,0
2,0.05,4.61,33.09,50,0,42,0
2,0.05,4.64,33.09,48,0,40,0
2,0.05,9.39,33.09,73,15,7,0
2,0.05,32.95,33.09,53,34,-7,0
2,0.05,-34.39,33.07,25,49,9,0
2,0.05,0.66,33.07,28,56,5,0
2,0.05,-46.13,33.07,-126,52,-15,0
2,0.05,51.42,33.07,-35,45,30,0
2,0.05,82.5,33.07,-33,44,32,0
2,0.05,44.02,33.07,-37,43,32,0
2,0.05,87.27,33.07,-35,43,30,0
2,0.05,78.19,33.07,-38,40,31,0
2,0,-0.03,35.65,61,1,24,0
2,0.36,5.06,35.65,61,1,24,0
2,0.4,17.91,35.65,61,1,25,0
2,0.41,79.34,35.65,61,1,24,0
2,0.41,228.25,35.65,61,1,24,0
2,0.41,-486.5,35.65,61,1,24,0
2,0.41,-5.9,35.65,61,1,24,0
2,0.41,156.15,35.65,61,0,24,0
2,0.41,46.78,35.63,61,1,24,0
2,0.41,4.05,35.63,61,1,24,0
2,0.41,0.18,35.63,60,1,25,0
2,0.41,0.89,35.63,61,0,25,0
2,0.41,3.96,35.63,61,1,24,0
2,0.41,15.28,35.63,61,1,25,0
2,0.41,9.8,35.63,61,1,24,0
2,0.41,-19.76,35.63,61,1,24,0
2,0.41,-14.39,35.61,61,1,24,0
2,0.41,-40.11,35.61,59,1,24,0
2,0.41,48.71,35.61,64,1,23,0
2,0.41,-18.74,35.61,61,1,22,0
2,0.41,-58.25,35.61,63,1,26,0
2,0.4,85.05,35.61,62,3,22,0
2,0.4,-4.88,35.61,61,1,23,0
2,0.4,16.58,35.61,61,1,24,0
2,0.4,-0.69,35.59,61,1,24,0
2,0.4,-44.42,35.59,62,1,24,0
2,0.41,18.22,35.59,62,1,23,0
2,0.4,-1.27,35.59,62,0,22,0
2,0.4,-66.01,35.59,63,0,23,0
2,0.4,45.68,35.59,61,1,24,0
2,0.4,32.26,35.59,62,1,24,0
2,0.4,21.37,35.59,61,0,24,0
2,0.4,25.51,35.59,61,0,23,0
2,0.4,-12.73,35.59,61,0,23,0
2,0.4,19.21,35.59,62,0,23,0
2,0.4,5,35.59,61,0,23,0
2,0.4,-33.75,35.59,61,0,24,0
2,0.4,2.28,35.59,61,0,24,0
2,0.4,-14.78,35.59,61,1,24,0
2,0.4,-4.76,35.59,61,0,24,0
2,0.4,3.34,35.57,62,0,24,0
2,0.4,-27.4,35.57,62,0,24,0
2,0.4,16.71,35.57,61,1,23,0
2,0.4,3.87,35.57,62,0,23,0
2,0.4,-22.3,35.55,62,1,21,0
2,0.4,18.3,35.55,64,1,20,0
2,0.4,-7.19,35.55,64,0,19,0
2,0.4,7.71,35.55,63,0,18,0
2,0.4,12.2,35.57,63,0,19,0
2,0.4,-24.9,35.57,62,0,19,0
2,0.4,24.62,35.57,63,0,19,0
2,0.4,3.66,35.57,63,0,18,0
2,0.4,-13.07,35.57,61,0,19,0
2,0.4,9.59,35.57,63,0,18,0
2,0.4,-14.67,35.57,63,0,18,0
2,0.4,13.49,35.57,59,-1,20,0
2,0,-0.03,32.87,54,-24,-31,0
2,0.83,5.06,32.87,54,-24,-34,0
2,0.95,17.91,32.87,54,-22,-32,0
2,0.78,79.34,32.87,58,-18,-27,0
2,0.77,228.25,32.87,57,-13,-23,0
2,0.72,-486.5,32.87,65,-17,-23,0
2,0.71,-5.9,32.87,61,-18,-16,0
2,0.71,156.15,32.87,62,-20,-15,0
2,0.7,46.78,32.87,52,-26,-9,0
2,0.71,4.04,32.87,61,-14,-3,0
2,0.74,-0.41,32.87,57,-24,-4,0
2,0.75,-2.38,32.87,65,-27,13,0
2,0.75,-9.17,32.87,49,-35,15,0
2,0.74,4.02,32.87,64,-34,10,0
2,0.72,32.64,32.87,56,-30,10,0
2,0.69,-9.78,32.87,61,-30,3,0
2,0.69,-6.68,32.91,66,-19,-3,0
2,0.66,-10.76,32.91,54,-10,-2,0
2,0.66,25.29,32.91,66,-15,-3,0
2,0.64,11.28,32.91,64,-22,-4,0
2,0.63,7.23,32.87,64,-24,-5,0
2,0.63,-30.99,32.87,61,-33,-3,0
2,0.63,18.64,32.87,53,-26,2,0
2,0.64,25.73,32.87,73,-24,9,0
2,0.7,26.27,32.93,64,-36,8,0
2,0.73,28.56,32.93,64,-27,17,0
2,0.76,10.54,32.93,59,-23,18,0
2,0.77,-79.29,32.93,60,-21,14,0
2,0.77,-26.23,32.89,53,-33,20,0
2,0.77,108.21,32.89,48,-36,22,0
2,0.78,-6.67,32.89,49,-33,21,0
2,0.78,-70.28,32.89,53,-34,27,0
2,0.78,-13.46,32.89,53,-30,14,0
2,0.77,-9.95,32.89,62,-28,15,0
2,0.77,6.78,32.89,52,-33,22,0
2,0.78,-21.33,32.89,50,-30,23,0
2,0.78,-25.41,32.89,51,-31,22,0
2,0.78,-30.8,32.89,59,-32,17,0
2,0.78,31.62,32.89,62,-29,13,0
2,0.77,21.12,32.89,55,-28,13,0
2,0.77,0.46,32.93,62,-26,13,0
2,0.77,11.66,32.93,61,-31,14,0
2,0.77,-9.39,32.93,56,-28,17,0
2,0.77,11.31,32.93,49,-32,19,0
2,0.77,-21.47,32.89,47,-30,19,0
2,0.76,2.34,32.89,49,-32,24,0
2,0.76,-45.86,32.89,59,-44,11,0
2,0.76,58.02,32.89,60,-43,-15,0
2,0.75,-2.62,32.89,52,-52,-17,0
2,0.75,33.48,32.89,38,-52,-8,0
2,0.75,78.23,32.89,26,-58,-5,0
2,0.75,357,32.89,27,-57,-3,0
2,0.75,-125.99,32.91,28,-58,-1,0
2,0.75,-65.55,32.91,28,-58,-1,0
2,0.75,-52.09,32.91,29,-58,-1,0
2,0.75,-55.7,32.91,28,-58,-1,0
2,0,-0.03,34.79,22,2,61,1
2,0.83,5.06,34.79,22,2,61,1
2,1.18,17.91,34.79,22,2,60,1
2,1.33,79.34,34.79,22,2,61,1
2,1.32,228.25,34.79,22,2,61,1
2,1.32,-486.5,34.79,22,2,60,1
2,1.32,-5.9,34.79,22,1,61,1
2,1.31,156.15,34.79,22,2,60,1
2,1.31,46.78,34.81,22,2,60,1
2,1.31,4.05,34.81,22,2,60,1
2,1.31,0.13,34.81,22,1,61,1
2,1.31,0.74,34.81,22,1,61,1
2,1.3,3.17,34.77,21,1,61,1
2,1.3,12.92,34.77,20,3,61,1
2,1.28,18.52,34.77,60,17,7,1
2,1.34,-14.71,34.77,47,11,-42,1
2,1.27,14.73,34.79,49,0,-45,1
2,1.24,61.27,34.79,57,1,-46,1
2,1.14,5.38,34.79,51,0,-42,1
2,1.09,-265.26,34.79,52,-7,-36,1
2,1.07,55.64,34.79,62,-16,-25,1
2,1.11,-61.66,34.79,67,-25,-8,1
2,1.15,31.69,34.79,58,-26,-6,1
2,1.18,68.72,34.79,58,-20,-17,1
2,1.15,-15.78,34.81,56,-16,-23,1
2,1.15,20.74,34.81,58,-16,-25,1
2,1.19,-92.09,34.81,54,-16,-18,1
2,1.25,-89.49,34.81,60,-18,-26,1
2,1.18,150.95,34.79,57,-14,-31,1
2,1.17,5.46,34.79,62,-13,-26,1
2,1.21,-25.23,34.79,58,-13,-25,1
2,1.24,-57.1,34.79,55,8,-11,1
2,1.23,-17.27,34.81,59,14,-8,1
2,1.33,-68.01,34.81,70,3,-6,1
2,1.39,64.98,34.81,71,-6,-7,1
2,1.46,227.88,34.81,83,-11,12,1
2,1.46,-67.82,34.77,52,-24,23,1
2,1.53,-93.7,34.77,48,-24,39,1
2,1.51,-17.7,34.77,63,-25,46,1
2,1.51,92.72,34.77,19,3,53,1
2,1.51,-72.46,34.81,18,-12,73,1
2,1.42,27.72,34.81,12,-20,64,1
2,1.32,-39.53,34.81,15,-17,61,1
2,0.97,-83.47,34.81,13,-16,60,1
2,0.81,-72.83,34.79,14,-14,61,1
2,0.72,8.87,34.79,15,-13,61,1
2,0.71,-15.69,34.79,15,-12,62,1
2,0.71,-6.18,34.79,15,-12,62,1
2,0.71,-41.06,34.79,15,-11,61,1
2,0.71,-7.34,34.79,16,-11,61,1
2,0.71,-40.18,34.79,16,-11,62,1
2,0.71,12.12,34.79,16,-11,62,1
2,0.71,-31.39,34.84,16,-11,62,1
2,0.7,33.61,34.84,15,-11,62,1
2,0.69,-18.93,34.84,16,-10,62,1
2,0.68,12.32,34.84,16,-10,61,1
2,0,-0.03,34.39,62,2,-23,1
2,0.2,5.06,34.39,61,2,-23,1
2,0.25,17.91,34.39,62,2,-22,1
2,0.25,79.34,34.39,62,2,-22,1
2,0.25,228.25,34.39,62,2,-23,1
2,0.25,-486.5,34.39,62,2,-23,1
2,0.26,-5.9,34.39,61,2,-23,1
2,0.26,156.15,34.39,62,2,-23,1
2,0.26,46.78,34.39,61,2,-23,1
2,0.26,4.05,34.39,61,2,-23,1
2,0.26,0.13,34.39,62,2,-23,1
2,0.26,0.73,34.39,63,2,-21,1
2,0.26,2.95,34.41,62,2,-21,1
2,0.26,11.74,34.41,63,2,-21,1
2,0.26,12.9,34.41,63,2,-20,1
2,0.26,-43.18,34.41,62,2,-20,1
2,0.26,17.9,34.41,63,2,-20,1
2,0.26,21.26,34.41,63,2,-20,1
2,0.26,9.62,34.41,63,2,-20,1
2,0.26,-3.69,34.41,63,2,-20,1
2,0.26,1.3,34.37,63,2,-19,1
2,0.26,3.24,34.37,63,2,-20,1
2,0.26,-0.59,34.37,62,2,-21,1
2,0.26,1.45,34.37,62,2,-20,1
2,0.26,-4.62,34.37,62,2,-21,1
2,0.26,-5.71,34.37,63,2,-20,1
2,0.27,-19.17,34.37,63,2,-21,1
2,0.26,-4.76,34.37,62,3,-24,1
2,0.27,0.07,34.37,62,2,-23,1
2,0.26,7.36,34.37,62,2,-23,1
2,0.27,1,34.37,62,2,-23,1
2,0.27,7.37,34.37,62,2,-21,1
2,0.27,5.01,34.37,63,2,-20,1
2,0.27,12.03,34.37,63,2,-19,1
2,0.26,3.44,34.37,63,2,-20,1
2,0.27,-1.06,34.37,64,1,-19,1
2,0.26,-4.09,34.34,63,2,-16,1
2,0.26,-6.48,34.34,63,3,-21,1
2,0.26,-3.86,34.34,62,2,-22,1
2,0.27,-7.23,34.34,62,2,-22,1
2,0.27,-3.06,34.34,62,3,-23,1
2,0.27,-13.77,34.34,62,2,-23,1
2,0.27,4.23,34.34,63,2,-21,1
2,0.27,0.58,34.34,63,2,-20,1
2,0.27,9.22,34.34,64,2,-18,1
2,0.27,-1.25,34.34,64,1,-18,1
2,0.27,7.71,34.34,63,2,-23,1
2,0.27,-2.37,34.34,62,3,-23,1
2,0.27,-1.04,34.33,62,2,-16,1
2,0.27,2.81,34.33,64,2,-17,1
2,0.27,-13.66,34.33,64,2,-17,1
2,0.27,1.05,34.33,63,2,-19,1
2,0.27,4.81,34.34,62,3,-22,1
2,0.27,6.59,34.34,63,3,-22,1
2,0.27,-4.88,34.34,62,2,-22,1
2,0.27,-0.03,34.34,62,2,-21,1
2,0,-0.03,32.66,48,18,-41,1
2,0.52,5.06,32.66,45,17,-43,1
2,0.59,17.91,32.66,43,16,-43,1
2,0.59,79.34,32.66,41,17,-47,1
2,0.59,228.25,32.66,41,16,-47,1
2,0.59,-486.5,32.66,43,15,-45,1
2,0.59,-5.9,32.66,49,17,-39,1
2,0.6,156.15,32.66,54,18,-32,1
2,0.62,46.78,32.66,53,19,-31,1
2,0.63,4.05,32.66,54,20,-31,1
2,0.63,0.14,32.66,54,19,-31,1
2,0.64,0.78,32.66,54,20,-31,1
2,0.64,3.37,32.66,53,19,-32,1
2,0.64,13.58,32.66,54,20,-32,1
2,0.64,17.42,32.66,54,19,-32,1
2,0.63,-15.32,32.66,54,19,-32,1
2,0.63,14.84,32.65,54,19,-32,1
2,0.63,63.89,32.65,53,19,-32,1
2,0.63,68.16,32.65,53,19,-32,1
2,0.62,-283.08,32.65,54,19,-32,1
2,0.62,-18.1,32.63,53,19,-32,1
2,0.62,22.75,32.63,54,19,-31,1
2,0.61,32.42,32.63,53,19,-32,1
2,0.61,10.2,32.63,54,19,-31,1
2,0.61,-2.78,32.65,53,19,-32,1
2,0.61,7.44,32.65,56,20,-29,1
2,0.6,-15.32,32.65,58,20,-21,1
2,0.6,17.42,32.65,58,20,-24,1
2,0.6,-0.69,32.65,58,20,-24,1
2,0.6,15.41,32.65,57,20,-25,1
2,0.6,-2.57,32.65,58,20,-25,1
2,0.6,3.47,32.65,57,20,-25,1
2,0.6,-7.25,32.65,57,20,-25,1
2,0.6,-22.97,32.65,57,20,-25,1
2,0.6,16.07,32.65,57,20,-25,1
2,0.59,4.06,32.65,57,20,-25,1
2,0.59,-1.96,32.61,57,20,-25,1
2,0.59,8.41,32.61,57,20,-25,1
2,0.59,-25.56,32.61,57,20,-25,1
2,0.59,13.83,32.61,57,19,-25,1
2,0.6,-4.66,32.63,57,19,-26,1
2,0.6,14.75,32.63,57,19,-25,1
2,0.61,1.12,32.63,57,19,-26,1
2,0.62,-11.32,32.63,57,19,-26,1
2,0.64,3.55,32.65,57,19,-25,1
2,0.65,-12.12,32.65,57,20,-26,1
2,0.65,17.13,32.65,57,19,-26,1
2,0.66,-2.78,32.65,57,19,-25,1
2,0.66,10.47,32.63,57,20,-25,1
2,0.67,2.85,32.63,57,19,-25,1
2,0.97,-17.21,32.63,57,19,-25,1
2,0.55,13.9,32.63,57,19,-26,1
2,0.51,-9.16,32.61,57,19,-26,1
2,0.51,14.55,32.61,56,19,-26,1
2,0.51,-2.31,32.61,57,19,-26,1
2,0.5,-9.02,32.61,57,19,-26,1
2,0,-0.03,33.59,-30,26,54,0
2,0.07,5.06,33.59,-33,29,50,0
2,0.13,17.91,33.59,-28,27,51,0
2,0.12,79.34,33.59,-29,38,49,0
2,0.12,228.25,33.59,-26,34,50,0
2,0.12,-486.47,33.59,-28,32,48,0
2,0.12,-4.95,33.59,-28,34,46,0
2,0.12,160.32,33.59,-28,33,47,0
2,0.13,64.41,33.59,-28,33,47,0
2,0.12,36.6,33.59,-28,32,48,0
2,0.13,-28.2,33.59,-27,34,47,0
2,0.12,2.15,33.59,-27,33,47,0
2,0.13,19.66,33.59,-27,34,48,0
2,0.13,-43.58,33.59,-26,33,49,0
2,0.13,-16.12,33.59,-26,33,49,0
2,0.13,14.73,33.59,-27,34,47,0
2,0.13,32.18,33.59,-26,33,48,0
2,0.13,1.39,33.59,-25,34,48,0
2,0.13,4.54,33.59,-26,33,49,0
2,0.13,-36.72,33.59,-25,33,50,0
2,0.13,-105.64,33.57,-25,33,49,0
2,0.13,117.24,33.57,-25,33,49,0
2,0.13,32.62,33.57,-25,33,49,0
2,0.13,23.15,33.57,-26,33,48,0
2,0.13,-2.34,33.59,-25,33,48,0
2,0.13,2.86,33.59,-25,33,50,0
2,0.13,-2.06,33.59,-25,33,49,0
2,0.13,-14.38,33.59,-25,33,49,0
2,0.13,0.37,33.57,-25,32,49,0
2,0.13,-6.49,33.57,-25,33,50,0
2,0.13,11.29,33.57,-25,32,50,0
2,0.13,-4.96,33.57,-25,32,49,0
2,0.13,2.4,33.59,-25,33,50,0
2,0.13,-1.47,33.59,-25,32,50,0
2,0.13,-12.1,33.59,-24,32,50,0
2,0.13,2.23,33.59,-25,33,50,0
2,0.13,-6.2,33.57,-22,34,52,0
2,0.13,12.8,33.57,-18,39,45,0
2,0.13,-6.07,33.57,-35,37,38,0
2,0.11,2.35,33.57,-51,28,32,0
2,0.1,-7.56,33.57,-58,22,27,0
2,0.09,-18.99,33.57,-56,24,26,0
2,0.09,10.69,33.57,-56,24,24,0
2,0.09,15.56,33.57,-58,25,17,0
2,0.09,-81.97,33.55,-58,27,16,0
2,0.1,32.5,33.55,-58,29,12,0
2,0.1,27.83,33.55,-57,30,12,0
2,0.1,-15.55,33.55,-54,31,17,0
2,0.09,5.74,33.53,-54,29,21,0
2,0.09,11.3,33.53,-46,30,32,0
2,0.09,-2.58,33.53,-42,29,41,0
2,0.09,-5.34,33.53,-23,27,53,0
2,0.09,-29.85,33.55,-19,26,56,0
2,0.1,-24.82,33.55,-14,28,56,0
2,0.1,-39.89,33.55,-16,27,58,0
2,0.1,-38.97,33.55,-19,25,58,0
2,0,-0.03,37.81,-6,0,64,0
2,0.11,5.06,37.81,-6,0,64,0
2,0.17,17.91,37.81,-6,0,64,0
2,0.16,79.34,37.81,-6,0,64,0
2,0.16,228.25,37.81,-5,0,64,0
2,0.16,-486.5,37.81,-6,0,64,0
2,0.16,-5.9,37.81,-6,0,64,0
2,0.16,156.15,37.81,-6,0,64,0
2,0.16,46.78,37.81,-6,0,64,0
2,0.16,4.05,37.81,-6,0,64,0
2,0.16,0.12,37.81,-6,0,64,0
2,0.16,0.69,37.81,-6,0,64,0
2,0.16,2.9,37.81,-6,0,64,0
2,0.16,12.13,37.81,-6,0,64,0
2,0.16,20.87,37.81,-6,0,64,0
2,0.17,-17.12,37.81,-6,0,64,0
2,0.16,10.64,37.79,-6,0,64,0
2,0.16,45.65,37.79,-6,0,64,0
2,0.16,57.44,37.79,-6,0,64,0
2,0.16,-241.22,37.79,-7,0,65,0
2,0.16,6,37.79,-4,1,64,0
2,0.16,67.95,37.79,0,-1,64,0
2,0.16,-21.25,37.79,5,-6,66,0
2,0.17,49.51,37.79,9,-11,63,0
2,0.17,32.09,37.77,21,-11,62,0
2,0.18,33.01,37.77,29,-10,55,0
2,0.19,209.12,37.77,43,-9,48,0
2,0.19,-2.75,37.77,44,-8,49,0
2,0.19,-68.61,37.79,41,-9,52,0
2,0.19,-1.45,37.79,39,-10,51,0
2,0.19,-15.93,37.79,37,-8,52,0
2,0.19,-90.42,37.79,37,-8,53,0
2,0.19,-67.29,37.87,25,-5,50,0
2,0.19,-63.69,37.87,11,-6,64,0
2,0.17,-16.57,37.87,6,3,64,0
2,0.15,6.55,37.87,2,9,63,0
2,0.16,3.25,37.87,-4,9,62,0
2,0.16,145.07,37.87,-7,10,62,0
2,0.16,-501.02,37.87,11,6,63,0
2,0.16,-191.83,37.87,6,4,64,0
2,0.16,-103.21,37.81,9,3,63,0
2,0.16,12.05,37.81,4,3,64,0
2,0.16,258.38,37.81,2,3,64,0
2,0.16,27,37.81,2,3,64,0
2,0.16,-206.4,37.79,1,3,64,0
2,0.16,156.93,37.79,1,4,64,0
2,0.17,147.18,37.79,1,3,65,0
2,0.17,-10.87,37.79,1,3,64,0
2,0.16,104.56,37.75,1,4,64,0
2,0.17,9.43,37.75,0,3,64,0
2,0.16,23.87,37.75,0,4,64,0
2,0.17,52.78,37.75,1,3,65,0
2,0.16,-46.92,37.73,1,3,64,0
2,0.16,53.48,37.73,1,4,64,0
2,0.16,0.7,37.73,1,2,64,0
2,0.16,-38.3,37.73,0,3,64,0
2,0,-0.03,32.25,63,1,13,0
2,0.83,5.06,32.25,72,4,4,0
2,1.18,17.91,32.25,64,2,6,0
2,1.61,79.34,32.25,69,1,7,0
2,2.09,228.24,32.25,65,3,7,0
2,2.58,-486.97,32.25,64,4,6,0
2,3.1,-7.71,32.25,65,4,7,0
2,3.4,145.48,32.25,68,3,3,0
2,3.57,22.06,32.25,68,0,-1,0
2,3.69,46.08,32.25,67,0,1,0
2,3.68,14.3,32.25,67,0,0,0
2,3.43,-4.41,32.25,65,-1,-1,0
2,3.33,-14.78,32.23,67,-1,-2,0
2,3.32,1.42,32.23,68,-3,-3,0
2,3.36,27.06,32.23,77,-5,6,0
2,3.4,-2.18,32.23,57,24,-2,0
2,3.34,-5.2,32.21,49,36,10,0
2,3.59,-8.68,32.21,52,39,4,0
2,3.72,-14.24,32.21,50,40,2,0
2,3.73,-39.28,32.21,52,38,1,0
2,3.74,41.13,32.23,46,17,10,0
2,3.69,54.4,32.23,10,-56,40,0
2,3.6,58.56,32.23,25,-62,32,0
2,3.52,10.02,32.23,13,-59,41,0
2,3.58,-60.89,32.27,16,-49,20,0
2,3.64,-19.64,32.27,19,-66,29,0
2,3.66,36.54,32.27,11,-59,18,0
2,3.67,-43.41,32.27,18,-60,25,0
2,3.69,-10.96,32.25,23,-60,37,0
2,3.72,-4.14,32.25,27,-54,77,0
2,3.72,14.96,32.25,6,-48,17,0
2,3.76,3.86,32.25,-61,4,33,0
2,3.66,7.35,32.25,-56,-3,44,0
2,3.81,-12.12,32.25,-39,0,51,0
2,3.83,-66.23,32.25,-43,-11,59,0
2,3.99,70.48,32.25,-39,-14,51,0
2,4.11,121.25,32.25,-36,-11,55,0
2,4.15,8.79,32.25,-38,-15,51,0
2,4.21,6.27,32.25,-34,-11,55,0
2,4.23,-10.93,32.25,-34,-18,53,0
2,4.3,-23.3,32.25,-39,-18,49,0
2,4.39,-44.36,32.25,-37,-11,50,0
2,4.54,-27.78,32.25,-33,-16,51,0
2,4.71,44.59,32.25,-42,-19,52,0
2,4.82,-18.13,32.23,-39,-17,51,0
2,4.89,45.61,32.23,-32,-6,56,0
2,4.97,-30.8,32.23,-29,-8,61,0
2,5.02,-24.5,32.23,-36,-5,51,0
2,4.97,15.82,32.23,-33,0,56,0
2,4.88,-12.89,32.23,-36,-6,55,0
2,4.77,-48.7,32.23,-38,-3,51,0
2,4.73,-14.03,32.23,-38,-1,52,0
2,4.71,30.94,32.25,-32,-2,59,0
2,4.67,-1.26,32.25,-28,0,62,0
2,4.66,-29.63,32.25,-30,-2,60,0
2,4.64,-5.41,32.25,-30,-3,58,0
3,0,-0.03,34,-16,-19,59,0
3,0.83,5.06,34,-15,-18,63,0
3,1.18,17.91,34,-17,-15,60,0
3,1.61,79.34,34,-4,-29,62,0
3,2.09,228.25,34,40,-42,55,0
3,2.58,-486.5,34,34,-32,28,0
3,3.1,-5.9,34,44,-27,43,0
3,3.6,156.15,34,28,-29,35,0
3,4.09,46.78,34.03,27,-36,46,0
3,4.59,4.05,34.03,28,-22,46,0
3,5.09,0.09,34.03,67,-28,26,0
3,5.59,0.02,34.03,87,-44,38,0
3,6.09,0.46,34.03,20,-44,48,0
3,6.59,1.77,34.03,6,-42,49,0
3,7.09,8.2,34.03,-58,-25,52,0
3,7.59,22.44,34.03,-29,3,59,0
3,8.09,-21.74,34.05,-22,2,58,0
3,8.1,-20.97,34.05,-3,-20,17,0
3,8.1,-83.98,34.05,35,-125,25,0
3,7.98,-3.6,34.05,20,-56,20,0
3,7.97,-23.09,34.07,11,-77,10,0
3,8.02,25.37,34.07,8,-55,7,0
3,8.07,104.61,34.07,30,-67,12,0
3,8.08,-55.7,34.07,10,-65,2,0
3,8.25,-67.56,34.05,10,-60,-19,0
3,8.3,73.87,34.05,28,-62,-16,0
3,8.46,-198.32,34.05,17,-55,-15,0
3,9.06,-112.83,34.05,20,-47,1,0
3,9.27,-134.93,34.03,31,-64,8,0
3,9.39,88.61,34.03,22,-88,39,0
3,8.81,213.05,34.03,12,-36,46,0
3,8.33,39.14,34.03,-36,-11,24,0
3,7.82,72.64,34.07,0,-38,82,0
3,7.92,-35.8,34.07,13,-4,80,0
3,7.72,-211.72,34.07,-15,-4,42,0
3,7.57,-18.48,34.07,-44,9,35,0
3,7.51,64.74,34.03,-34,5,51,0
3,7.41,-13.64,34.03,-36,-4,50,0
3,6.86,0.85,34.03,-35,-9,52,0
